   -49.2000   -46.9000   -40.6000   -39.1000   -39.8000   -48.4000   -47.7000   -45.3000   -43.0000   -43.0000   -39.8000   -44.5000   -46.9000   -43.8000   -43.8000   -40.6000   -43.8000   -45.3000   -46.9000   -46.9000   -44.5000   -40.6000   -43.0000   -42.2000   -46.9000   -51.6000   -49.2000   -46.9000   -43.0000   -44.5000   -42.2000   -50.8000   -45.3000   -46.1000   -43.8000   -37.5000   -42.2000   -43.8000   -46.9000   -47.7000   -45.3000   -39.8000   -41.4000   -48.4000   -52.3000   -47.7000   -46.1000   -46.1000   -42.2000   -43.8000   -46.9000   -46.1000   -42.2000   -43.8000   -40.6000   -41.4000   -43.8000   -46.1000   -45.3000   -44.5000   -43.0000   -46.9000   -45.3000   -48.4000   -45.3000   -50.8000   -47.7000   -44.5000   -43.8000   -47.7000   -51.6000   -46.9000   -46.9000   -44.5000   -39.8000   -39.1000   -41.4000   -38.3000   -38.3000   -35.9000   -32.8000   -34.4000   -35.9000   -47.7000   -43.8000   -41.4000   -43.0000   -43.8000   -42.2000   -48.4000   -52.3000   -48.4000   -42.2000   -44.5000   -43.8000   -46.1000   -50.0000   -46.1000   -44.5000   -41.4000   -43.0000   -39.8000   -44.5000   -50.0000   -46.9000   -45.3000   -45.3000   -38.3000   -45.3000   -46.1000   -46.9000   -44.5000   -39.8000   -39.1000   -41.4000   -46.1000   -44.5000   -42.2000   -35.9000   -33.6000   -32.8000   -35.2000   -39.8000   -38.3000   -35.2000   -29.7000   -38.3000   -36.7000   -41.4000   -35.2000   -37.5000   -39.1000   -31.3000   -30.5000   -32.8000   -36.7000   -41.4000   -39.1000   -36.7000   -34.4000   -32.8000   -34.4000   -34.4000   -39.8000   -42.2000   -36.7000   -35.2000   -39.8000   -43.8000   -36.7000   -32.0000   -31.3000   -35.9000   -42.2000   -45.3000   -40.6000   -39.8000   -28.1000   -28.1000   -31.3000   -42.2000   -49.2000   -40.6000   -35.9000   -30.5000   -32.0000   -36.7000   -42.2000   -40.6000   -36.7000   -34.4000   -28.9000   -33.6000   -39.1000   -39.1000   -41.4000   -34.4000   -26.6000   -33.6000   -41.4000   -40.6000   -37.5000   -34.4000   -28.1000   -27.3000   -32.8000   -32.0000   -32.0000   -36.7000   -35.9000   -32.8000   -31.3000   -34.4000   -35.2000   -36.7000   -32.0000   -30.5000   -30.5000   -34.4000   -39.8000   -35.9000   -35.2000   -34.4000   -32.8000   -31.3000   -39.8000   -39.1000   -38.3000   -38.3000   -40.6000   -38.3000   -41.4000   -43.0000   -37.5000   -41.4000   -44.5000   -41.4000   -47.7000   -51.6000   -52.3000   -47.7000   -41.4000   -41.4000   -44.5000   -43.8000   -48.4000   -45.3000   -45.3000   -39.1000   -36.7000   -39.1000   -42.2000   -44.5000   -40.6000   -35.2000   -35.9000   -35.9000   -34.4000   -38.3000   -35.2000   -33.6000   -33.6000   -29.7000   -25.8000   -29.7000   -31.3000   -25.0000   -22.7000   -20.3000   -18.0000   -23.4000   -26.6000   -21.1000   -21.1000   -18.8000   -14.8000   -15.6000   -26.6000   -21.1000   -14.1000   -15.6000   -17.2000   -10.2000   -13.3000   -15.6000   -14.8000   -17.2000   -18.8000   -14.8000   -13.3000   -18.8000   -18.8000   -18.8000   -14.8000   -14.1000   -14.1000   -17.2000   -18.0000   -14.8000   -17.2000   -15.6000   -14.1000   -14.1000   -20.3000   -21.1000   -21.1000   -15.6000   -15.6000   -15.6000   -19.5000   -25.8000   -21.9000   -21.9000   -14.8000   -10.9000   -16.4000   -20.3000   -20.3000   -19.5000   -18.8000   -17.2000   -16.4000   -18.8000   -21.9000   -19.5000   -20.3000   -17.2000   -14.8000   -18.8000   -18.8000   -21.9000   -20.3000   -18.8000   -17.2000   -17.2000   -26.6000   -27.3000   -27.3000   -23.4000   -23.4000   -20.3000   -26.6000   -32.0000   -25.8000   -26.6000   -21.1000   -20.3000   -21.1000   -28.1000   -29.7000   -27.3000   -26.6000   -23.4000   -22.7000   -28.9000   -31.3000   -29.7000   -28.1000   -29.7000   -25.0000   -21.1000   -27.3000   -25.8000   -23.4000   -19.5000   -23.4000   -23.4000   -25.8000   -27.3000   -27.3000   -26.6000   -22.7000   -23.4000   -26.6000   -31.3000   -28.9000   -28.1000   -23.4000   -25.0000   -23.4000   -28.1000   -30.5000   -30.5000   -31.3000   -22.7000   -21.9000   -31.3000   -35.2000   -30.5000   -31.3000   -28.9000   -28.9000   -24.2000   -29.7000   -32.0000   -28.1000   -25.0000   -22.7000   -24.2000   -26.6000   -31.3000   -30.5000   -30.5000   -28.1000   -28.1000   -25.8000   -28.1000   -28.1000   -28.9000   -32.0000   -26.6000   -25.8000   -28.1000   -28.9000   -29.7000   -28.1000   -28.1000   -30.5000   -29.7000   -35.2000   -34.4000   -34.4000   -28.9000   -31.3000   -28.1000   -25.8000   -36.7000   -28.9000   -27.3000   -25.0000   -27.3000   -29.7000   -32.8000   -30.5000   -30.5000   -30.5000   -25.8000   -21.9000   -28.9000   -34.4000   -31.3000   -29.7000   -28.9000   -25.8000   -29.7000   -33.6000   -30.5000   -28.1000   -25.0000   -22.7000   -25.0000   -32.8000   -33.6000   -28.1000   -26.6000   -22.7000   -25.0000   -27.3000   -31.3000   -35.2000   -34.4000   -25.8000   -23.4000   -25.8000   -28.9000   -32.0000   -31.3000   -30.5000   -29.7000   -25.8000   -31.3000   -30.5000   -25.0000   -23.4000   -25.0000   -26.6000   -25.0000   -25.8000   -26.6000   -28.1000   -28.9000   -28.1000   -23.4000   -26.6000   -30.5000   -29.7000   -28.9000   -25.0000   -25.0000   -27.3000   -36.7000   -32.8000   -26.6000   -25.0000   -21.9000   -22.7000   -30.5000   -33.6000   -29.7000   -24.2000   -25.0000   -28.9000   -26.6000   -34.4000   -34.4000   -32.8000   -28.1000   -27.3000   -28.1000   -32.0000   -40.6000   -37.5000   -29.7000   -29.7000   -24.2000   -22.7000   -34.4000   -39.8000   -32.0000   -27.3000   -21.1000   -21.9000   -30.5000   -28.1000   -29.7000   -28.9000   -21.9000   -25.0000   -32.8000   -35.2000   -28.9000   -27.3000   -28.1000   -29.7000   -21.1000   -21.9000   -24.2000   -24.2000   -22.7000   -15.6000   -19.5000   -20.3000   -25.8000   -22.7000   -25.0000   -25.0000   -17.2000   -17.2000   -23.4000   -23.4000   -22.7000   -21.9000   -18.0000   -16.4000   -18.8000   -25.8000   -26.6000   -25.8000   -25.0000   -18.8000   -21.9000   -30.5000   -32.8000   -23.4000   -20.3000   -17.2000   -19.5000   -20.3000   -27.3000   -25.0000   -24.2000   -18.8000   -14.1000   -14.1000   -25.8000   -31.3000   -25.8000   -26.6000   -24.2000   -28.1000   -30.5000   -34.4000   -32.8000   -31.3000   -28.1000   -24.2000   -22.7000   -29.7000   -38.3000   -33.6000   -39.8000   -35.2000   -34.4000   -37.5000   -47.7000   -49.2000   -50.0000   -43.8000   -38.3000   -40.6000   -40.6000   -39.8000   -46.1000   -47.7000   -41.4000   -44.5000   -46.1000   -39.1000   -46.9000   -46.9000   -45.3000   -42.2000   -43.8000   -50.0000   -50.8000   -48.4000   -43.0000   -41.4000   -43.8000   -46.1000   -54.7000   -48.4000   -46.9000   -42.2000   -41.4000   -43.0000   -50.0000   -49.2000   -46.9000   -43.8000   -38.3000   -38.3000   -39.8000   -46.1000   -42.2000   -39.8000   -37.5000   -35.2000   -34.4000   -39.8000   -40.6000   -34.4000   -36.7000   -38.3000   -35.2000   -37.5000   -37.5000   -38.3000   -39.8000   -39.8000   -34.4000   -35.2000   -39.8000   -43.0000   -43.8000   -43.8000   -39.1000   -36.7000   -42.2000   -39.8000   -39.8000   -40.6000   -39.1000   -43.8000   -45.3000   -46.1000   -50.8000   -51.6000   -47.7000   -50.8000   -56.3000   -63.3000   -71.9000   -72.7000   -78.9000   -75.8000   -76.6000   -81.3000   -91.4000   -91.4000   -94.5000   -91.4000   -94.5000  -100.8000  -110.2000  -110.2000  -108.6000  -116.4000  -115.6000  -114.1000  -110.9000  -107.0000  -104.7000  -102.3000   -97.7000   -92.2000   -89.1000   -89.8000   -85.9000   -80.5000   -69.5000   -60.2000   -54.7000   -53.1000   -48.4000   -44.5000   -40.6000   -39.1000   -36.7000   -38.3000   -44.5000   -43.0000   -41.4000   -39.8000   -36.7000   -39.8000   -43.0000   -52.3000   -52.3000   -54.7000   -46.1000   -46.1000   -53.9000   -60.9000   -60.2000   -51.6000   -52.3000   -53.1000   -53.9000   -63.3000   -68.0000   -64.1000   -67.2000   -62.5000   -65.6000   -71.9000   -82.0000   -85.9000   -80.5000   -73.4000   -66.4000   -61.7000   -56.3000   -48.4000   -29.7000   -18.0000    -3.9000     0.0000    -3.9000   -14.1000   -19.5000   -24.2000   -33.6000   -40.6000   -53.9000   -67.2000   -82.8000  -101.6000  -115.6000  -131.3000  -142.2000  -157.8000  -172.7000  -180.5000  -189.8000  -196.9000  -206.3000  -211.7000  -217.2000  -218.0000  -214.1000  -209.4000  -203.9000  -195.3000  -196.1000  -196.1000  -191.4000  -187.5000  -172.7000  -164.1000  -150.8000  -135.2000  -117.2000   -92.2000   -72.7000   -46.9000   -25.0000    -5.5000    13.3000    32.0000    50.8000    75.0000    98.4000   132.0000   164.8000   200.8000   242.2000   289.8000   337.5000   374.2000   410.2000   439.1000   468.8000   488.3000   512.5000   531.3000   545.3000   553.9000   564.1000   571.1000   578.9000   589.1000   587.5000   582.0000   574.2000   577.3000   589.8000   606.3000   618.8000   623.4000   621.1000   626.6000   635.9000   643.0000   646.9000   653.9000   651.6000   639.1000   628.1000   621.9000   620.3000   621.1000   608.6000   606.3000   588.3000   575.0000   559.4000   543.8000   532.0000   510.9000   489.1000   472.7000   443.8000   432.0000   418.8000   400.8000   379.7000   364.1000   335.2000   308.6000   297.7000   279.7000   266.4000   250.0000   232.0000   214.1000   206.3000   197.7000   178.9000   163.3000   140.6000   126.6000   110.9000   103.9000    89.1000    75.0000    60.9000    43.0000    30.5000    25.0000    20.3000    -4.7000   -20.3000   -32.8000   -43.0000   -52.3000   -64.1000   -67.2000   -76.6000   -85.9000   -96.9000  -100.0000  -101.6000  -105.5000  -114.8000  -118.0000  -121.1000  -124.2000  -125.0000  -125.0000  -119.5000  -117.2000  -116.4000  -120.3000  -121.9000  -121.1000  -116.4000  -121.9000  -120.3000  -120.3000  -123.4000  -129.7000  -130.5000  -138.3000  -146.9000  -157.0000  -177.3000  -182.8000  -195.3000  -210.9000  -232.8000  -257.0000  -281.3000  -303.9000  -321.1000  -329.7000  -343.8000  -353.9000  -357.0000  -357.0000  -347.7000  -339.8000  -323.4000  -322.7000  -318.0000  -314.8000  -310.2000  -307.8000  -306.3000  -307.8000  -324.2000  -344.5000  -370.3000  -391.4000  -409.4000  -424.2000  -442.2000  -453.1000  -460.9000  -464.1000  -463.3000  -452.3000  -443.8000  -432.8000  -422.7000  -411.7000  -398.4000  -385.9000  -384.4000  -416.4000  -468.8000  -536.7000  -593.8000  -635.9000  -637.5000  -600.0000  -516.4000  -404.7000  -278.1000  -144.5000   -44.5000   -34.4000  -102.3000  -191.4000  -267.2000  -317.2000  -334.4000  -342.2000  -340.6000  -332.0000  -320.3000  -305.5000  -294.5000  -290.6000  -300.8000  -319.5000  -350.0000  -374.2000  -389.8000  -385.2000  -368.8000  -353.1000  -333.6000  -318.8000  -303.1000  -286.7000  -264.8000  -245.3000  -228.9000  -207.8000  -182.8000  -167.2000  -147.7000  -129.7000  -115.6000  -104.7000  -102.3000  -101.6000  -100.8000   -93.0000   -90.6000   -89.1000   -90.6000   -96.1000  -103.9000  -100.8000  -107.0000  -114.1000  -117.2000  -131.3000  -146.1000  -163.3000  -165.6000  -168.8000  -164.8000  -157.0000  -151.6000  -133.6000  -109.4000   -89.1000   -88.3000  -105.5000  -138.3000  -175.8000  -210.9000  -232.8000  -251.6000  -264.1000  -274.2000  -279.7000  -276.6000  -271.1000  -268.0000  -265.6000  -259.4000  -252.3000  -250.8000  -248.4000  -238.3000  -228.9000  -224.2000  -218.0000  -210.2000  -208.6000  -200.8000  -191.4000  -184.4000  -177.3000  -171.9000  -166.4000  -161.7000  -153.9000  -146.1000  -137.5000  -123.4000  -118.0000  -111.7000   -98.4000   -92.2000   -86.7000   -79.7000   -72.7000   -71.1000   -68.8000   -61.7000   -57.8000   -53.1000   -47.7000   -50.0000   -50.0000   -43.0000   -33.6000   -39.1000   -35.2000   -37.5000   -36.7000   -29.7000   -23.4000   -15.6000    -9.4000    -3.9000    -0.8000     9.4000    22.7000    39.8000    54.7000    72.7000    93.8000   124.2000   171.1000   229.7000   311.7000   400.0000   503.1000   610.9000   709.4000   772.7000   789.8000   764.8000   717.2000   664.8000   616.4000   570.3000   532.8000   507.0000   493.8000   482.0000   470.3000   480.5000   496.1000   518.0000   545.3000   573.4000   594.5000   608.6000   583.6000   470.3000   257.0000    60.9000   -50.8000   -86.7000   -84.4000   -73.4000   -53.1000   -21.9000    34.4000   121.1000   261.7000   503.1000   773.4000   958.6000  1023.4000  1024.2000  1007.8000  1001.6000  1004.7000  1016.4000  1014.1000   973.4000   914.1000   835.2000   770.3000   684.4000   615.6000   559.4000   533.6000   518.8000   522.7000   524.2000   533.6000   547.7000   559.4000   564.1000   577.3000   587.5000   594.5000   603.1000   605.5000   605.5000   607.0000   606.3000   606.3000   598.4000   596.9000   589.1000   576.6000   562.5000   559.4000   546.9000   544.5000   543.0000   527.3000   506.3000   491.4000   487.5000   470.3000   465.6000   450.0000   431.3000   409.4000   405.5000   395.3000   384.4000   372.7000   356.3000   333.6000   315.6000   292.2000   278.1000   262.5000   251.6000   237.5000   217.2000   203.9000   193.8000   183.6000   168.0000   154.7000   145.3000   140.6000   133.6000   128.1000   129.7000   119.5000   100.8000    90.6000    92.2000    82.0000    84.4000    87.5000    74.2000    56.3000    49.2000    39.8000    32.8000    32.0000    23.4000     6.3000    -4.7000   -10.9000   -21.1000   -25.0000   -27.3000   -35.2000   -48.4000   -61.7000   -69.5000   -75.0000   -71.1000   -81.3000   -93.8000  -100.8000  -107.8000  -117.2000  -112.5000  -114.1000  -121.1000  -127.3000  -132.8000  -137.5000  -136.7000  -132.8000  -135.9000  -137.5000  -142.2000  -141.4000  -144.5000  -143.0000  -143.0000  -147.7000  -150.0000  -150.8000  -150.8000  -144.5000  -139.1000  -138.3000  -142.2000  -149.2000  -146.1000  -142.2000  -140.6000  -137.5000  -135.9000  -140.6000  -143.8000  -143.0000  -138.3000  -132.0000  -131.3000  -133.6000  -133.6000  -133.6000  -135.9000  -133.6000  -129.7000  -130.5000  -132.8000  -136.7000  -139.8000  -135.2000  -128.9000  -133.6000  -138.3000  -140.6000  -143.0000  -145.3000  -140.6000  -140.6000  -141.4000  -140.6000  -141.4000  -146.9000  -146.1000  -146.9000  -146.1000  -148.4000  -153.1000  -153.1000  -157.8000  -151.6000  -147.7000  -149.2000  -153.9000  -156.3000  -160.2000  -153.1000  -154.7000  -155.5000  -155.5000  -158.6000  -159.4000  -168.0000  -169.5000  -165.6000  -169.5000  -171.9000  -178.1000  -181.3000  -184.4000  -183.6000  -186.7000  -185.2000  -189.8000  -196.1000  -202.3000  -194.5000  -197.7000  -205.5000  -210.2000  -210.9000  -211.7000  -210.2000  -210.2000  -213.3000  -209.4000  -211.7000  -214.8000  -215.6000  -211.7000  -209.4000  -207.8000  -203.9000  -207.0000  -214.8000  -210.9000  -200.0000  -200.8000  -196.9000  -197.7000  -197.7000  -196.1000  -190.6000  -185.9000  -184.4000  -180.5000  -178.9000  -180.5000  -176.6000  -171.9000  -164.1000  -161.7000  -159.4000  -157.8000  -155.5000  -146.9000  -146.1000  -144.5000  -139.1000  -138.3000  -135.9000  -128.9000  -124.2000  -124.2000  -117.2000  -114.8000  -114.1000  -114.1000  -107.0000  -100.8000   -93.8000   -87.5000   -89.8000   -82.8000   -75.8000   -61.7000   -56.3000   -43.0000   -35.2000   -25.0000   -11.7000     4.7000    24.2000    44.5000    68.0000    97.7000   142.2000   196.1000   264.8000   339.1000   425.0000   516.4000   610.2000   690.6000   739.1000   762.5000   759.4000   740.6000   718.8000   704.7000   694.5000   693.0000   691.4000   689.1000   684.4000   698.4000   719.5000   740.6000   766.4000   773.4000   747.7000   654.7000   478.9000   275.0000   127.3000    60.2000    35.2000    27.3000    21.9000    24.2000    29.7000    37.5000    44.5000    50.0000    55.5000    67.2000    78.9000    95.3000   114.1000   132.0000   146.1000   165.6000   196.9000   221.9000   229.7000   214.1000   179.7000   123.4000    67.2000    14.1000   -27.3000   -53.1000   -57.0000   -47.7000   -22.7000    23.4000    65.6000   123.4000   160.9000   203.1000   228.9000   263.3000   293.8000   325.0000   350.0000   369.5000   386.7000   401.6000   425.8000   445.3000   459.4000   466.4000   478.1000   480.5000   485.2000   493.0000   493.0000   493.0000   497.7000   506.3000   507.0000   516.4000   522.7000   510.9000   501.6000   488.3000   474.2000   461.7000   459.4000   463.3000   465.6000   456.3000   441.4000   420.3000   411.7000   407.0000   403.9000   393.0000   376.6000   356.3000   335.2000   316.4000   307.8000   297.7000   281.3000   259.4000   239.1000   225.0000   209.4000   196.9000   178.9000   161.7000   146.1000   129.7000   108.6000    89.8000    85.9000    71.9000    45.3000    33.6000    21.1000     2.3000   -10.9000   -25.8000   -40.6000   -63.3000   -80.5000   -89.8000  -103.1000  -111.7000  -125.8000  -143.0000  -157.0000  -170.3000  -182.8000  -187.5000  -197.7000  -214.8000  -231.3000  -246.1000  -258.6000  -264.8000  -263.3000  -276.6000  -289.1000  -300.0000  -304.7000  -313.3000  -320.3000  -325.8000  -332.0000  -338.3000  -349.2000  -357.8000  -360.9000  -360.9000  -363.3000  -369.5000  -376.6000  -380.5000  -381.3000  -379.7000  -381.3000  -385.9000  -392.2000  -392.2000  -393.0000  -394.5000  -396.9000  -393.0000  -394.5000  -403.1000  -400.8000  -400.0000  -392.2000  -395.3000  -394.5000  -395.3000  -398.4000  -396.1000  -400.0000  -390.6000  -389.8000  -391.4000  -397.7000  -392.2000  -392.2000  -382.8000  -379.7000  -379.7000  -381.3000  -376.6000  -376.6000  -370.3000  -356.3000  -357.8000  -357.8000  -358.6000  -357.8000  -356.3000  -341.4000  -335.9000  -340.6000  -338.3000  -336.7000  -335.2000  -327.3000  -317.2000  -314.8000  -313.3000  -312.5000  -309.4000  -303.1000  -289.1000  -289.1000  -293.0000  -293.8000  -290.6000  -292.2000  -286.7000  -277.3000  -275.8000  -278.1000  -281.3000  -278.1000  -275.0000  -260.9000  -262.5000  -260.9000  -261.7000  -263.3000  -260.2000  -256.3000  -246.9000  -244.5000  -247.7000  -249.2000  -249.2000  -246.9000  -237.5000  -235.9000  -235.2000  -232.8000  -234.4000  -229.7000  -225.0000  -218.8000  -220.3000  -218.0000  -221.1000  -218.8000  -214.8000  -211.7000  -211.7000  -209.4000  -206.3000  -206.3000  -203.1000  -203.9000  -195.3000  -193.0000  -189.8000  -191.4000  -196.1000  -193.0000  -187.5000  -178.9000  -177.3000  -179.7000  -183.6000  -181.3000  -174.2000  -169.5000  -174.2000  -173.4000  -174.2000  -170.3000  -171.1000  -167.2000  -164.8000  -161.7000  -162.5000  -160.9000  -164.1000  -160.2000  -158.6000  -159.4000  -157.0000  -154.7000  -157.8000  -158.6000  -156.3000  -156.3000  -154.7000  -152.3000  -152.3000  -156.3000  -157.0000  -153.9000  -153.1000  -150.8000  -148.4000  -151.6000  -157.0000  -152.3000  -143.8000  -144.5000  -146.9000  -150.0000  -147.7000  -148.4000  -143.0000  -142.2000  -143.0000  -150.8000  -152.3000  -149.2000  -145.3000  -137.5000  -139.1000  -142.2000  -143.8000  -139.8000  -142.2000  -136.7000  -139.8000  -139.8000  -141.4000  -145.3000  -139.8000  -139.8000  -135.9000  -132.8000  -132.8000  -137.5000  -134.4000  -131.3000  -129.7000  -130.5000  -127.3000  -132.8000  -138.3000  -134.4000  -125.8000  -128.1000  -132.8000  -129.7000  -133.6000  -128.9000  -126.6000  -125.0000  -125.0000  -121.1000  -126.6000  -127.3000  -128.1000  -124.2000  -120.3000  -122.7000  -123.4000  -131.3000  -128.9000  -127.3000  -125.8000  -127.3000  -122.7000  -127.3000  -127.3000  -122.7000  -120.3000  -115.6000  -111.7000  -114.1000  -117.2000  -110.9000  -103.9000  -103.9000  -102.3000   -96.9000   -96.1000  -100.0000   -97.7000   -89.8000   -81.3000   -78.9000   -80.5000   -79.7000   -75.0000   -62.5000   -66.4000   -66.4000   -57.8000   -60.2000   -63.3000   -60.2000   -55.5000   -53.9000   -42.2000   -39.8000   -42.2000   -42.2000   -42.2000   -40.6000   -39.1000   -32.0000   -33.6000   -36.7000   -37.5000   -27.3000   -35.2000   -27.3000   -25.8000   -29.7000   -28.1000   -25.0000   -21.1000   -26.6000   -21.9000   -30.5000   -29.7000   -26.6000   -19.5000   -21.9000   -25.0000   -29.7000   -35.9000   -32.8000   -29.7000   -24.2000   -27.3000   -27.3000   -32.0000   -44.5000   -39.8000   -31.3000   -29.7000   -30.5000   -43.0000   -43.0000   -39.8000   -35.9000   -40.6000   -40.6000   -42.2000   -49.2000   -41.4000   -46.1000   -38.3000   -39.1000   -37.5000   -50.0000   -56.3000   -46.9000   -39.1000   -40.6000   -47.7000   -44.5000   -52.3000   -52.3000   -52.3000   -50.0000   -47.7000   -44.5000   -50.0000   -54.7000   -54.7000   -47.7000   -50.0000   -51.6000   -52.3000   -53.9000   -59.4000   -57.0000   -55.5000   -57.0000   -53.9000   -60.2000   -68.0000   -64.1000   -62.5000   -57.8000   -60.2000   -66.4000   -69.5000   -65.6000   -64.1000   -65.6000   -62.5000   -64.8000   -72.7000   -74.2000   -70.3000   -66.4000   -64.8000   -68.0000   -71.9000   -78.1000   -77.3000   -72.7000   -67.2000   -66.4000   -64.1000   -69.5000   -72.7000   -71.9000   -66.4000   -73.4000   -76.6000   -75.8000   -71.1000   -76.6000   -73.4000   -71.1000   -71.9000   -66.4000   -67.2000   -69.5000   -69.5000   -65.6000   -64.1000   -68.0000   -73.4000   -75.0000   -69.5000   -66.4000   -67.2000   -65.6000   -61.7000   -64.8000   -64.8000   -63.3000   -57.8000   -57.0000   -60.2000   -64.1000   -64.8000   -60.2000   -57.0000   -57.0000   -56.3000   -57.0000   -60.2000   -57.8000   -54.7000   -48.4000   -50.0000   -50.0000   -53.1000   -53.1000   -51.6000   -46.9000   -46.9000   -46.1000   -44.5000   -53.9000   -53.1000   -46.9000   -39.8000   -40.6000   -40.6000   -47.7000   -46.1000   -40.6000   -37.5000   -37.5000   -37.5000   -35.9000   -48.4000   -44.5000   -40.6000   -37.5000   -32.8000   -35.9000   -45.3000   -41.4000   -39.1000   -37.5000   -36.7000   -36.7000   -34.4000   -41.4000   -39.1000   -39.1000   -32.0000   -29.7000   -34.4000   -35.2000   -38.3000   -32.8000   -28.9000   -28.9000   -28.9000   -32.0000   -35.2000   -32.8000   -31.3000   -31.3000   -28.1000   -28.1000   -29.7000   -30.5000   -26.6000   -22.7000   -25.0000   -21.9000   -27.3000   -32.0000   -31.3000   -28.9000   -18.8000   -21.1000   -21.9000   -25.8000   -29.7000   -18.8000   -14.8000   -16.4000   -18.8000   -21.1000   -21.9000   -20.3000   -19.5000   -16.4000   -14.8000   -11.7000   -18.0000   -20.3000   -16.4000   -14.8000   -12.5000   -12.5000   -14.1000   -14.8000   -14.1000   -11.7000   -10.9000    -7.8000   -14.1000   -23.4000   -19.5000   -14.8000   -10.2000   -12.5000   -15.6000   -18.8000   -21.1000   -19.5000   -18.0000   -16.4000   -11.7000   -13.3000   -19.5000   -18.8000   -18.8000   -14.1000   -18.0000   -19.5000   -21.1000   -18.8000   -17.2000   -10.9000   -14.1000   -13.3000   -13.3000   -21.1000   -18.0000   -15.6000    -9.4000    -6.3000    -9.4000   -15.6000   -16.4000   -17.2000   -16.4000   -11.7000    -8.6000    -7.8000   -13.3000   -14.8000    -8.6000    -9.4000    -8.6000   -14.1000   -17.2000   -13.3000   -10.2000    -7.0000    -9.4000    -8.6000   -14.8000   -17.2000   -14.8000    -8.6000    -4.7000    -3.9000    -3.1000   -14.1000   -14.1000   -10.9000    -8.6000   -10.2000    -7.8000   -10.2000   -12.5000   -12.5000   -10.2000   -10.9000    -7.0000    -7.0000   -12.5000   -11.7000    -3.9000    -6.3000   -14.1000    -9.4000   -13.3000   -17.2000   -17.2000    -7.8000    -6.3000    -2.3000    -7.0000   -21.1000   -18.0000    -7.8000    -2.3000    -4.7000   -10.9000   -15.6000   -20.3000   -16.4000    -5.5000    -7.8000    -9.4000   -15.6000   -17.2000   -17.2000   -14.8000    -7.0000    -6.3000    -8.6000   -10.9000   -14.1000   -17.2000   -10.9000    -6.3000    -6.3000    -9.4000   -10.9000   -12.5000   -14.1000    -7.8000   -14.1000   -14.1000   -16.4000    -9.4000    -8.6000   -10.9000   -10.2000    -9.4000   -12.5000   -15.6000   -10.2000   -10.2000   -12.5000    -6.3000    -7.8000   -10.9000    -7.8000    -5.5000    -7.8000    -7.0000    -7.0000   -10.9000   -15.6000   -12.5000    -4.7000    -3.1000    -3.9000   -10.9000   -13.3000    -8.6000   -12.5000    -5.5000    -1.6000    -3.1000    -6.3000   -10.2000    -7.0000    -0.8000    -0.8000    -1.6000   -10.2000    -7.0000    -7.8000    -7.0000    -1.6000    -1.6000    -3.1000   -12.5000    -5.5000    -8.6000    -2.3000    -3.1000    -4.7000    -7.8000    -8.6000    -6.3000    -7.8000    -6.3000    -3.9000    -7.0000    -6.3000   -10.2000    -8.6000    -2.3000     0.0000    -3.1000    -2.3000    -5.5000    -3.1000     0.8000     3.1000     3.9000     3.9000     0.8000    -4.7000    -1.6000    -2.3000    -2.3000    -2.3000    -3.9000    -4.7000     0.0000    -1.6000     0.0000     3.9000     5.5000     1.6000    -1.6000    -1.6000     3.1000     3.1000     4.7000    -1.6000    -7.0000    -7.8000    -2.3000    -0.8000    -3.1000     0.0000    -6.3000    -8.6000    -7.0000    -4.7000    -0.8000     1.6000    -6.3000   -15.6000    -6.3000    -7.8000    -2.3000    -4.7000    -3.9000   -10.2000    -8.6000    -7.0000    -1.6000     2.3000     1.6000    -1.6000   -14.1000    -8.6000    -3.9000     0.8000     1.6000     3.9000    -5.5000    -5.5000    -3.9000    -3.1000    -0.8000     0.8000    -1.6000    -6.3000    -1.6000    -3.1000     3.9000     3.9000     3.9000    -5.5000    -5.5000    -3.9000    -3.9000     0.8000     4.7000    -2.3000    -8.6000    -3.1000    -2.3000     1.6000    -1.6000     3.9000     0.8000    -4.7000    -3.9000    -1.6000    -0.8000     0.0000    -1.6000    -8.6000    -7.8000    -3.9000     0.8000     0.8000     6.3000     0.8000    -1.6000    -0.8000    -1.6000     2.3000     7.0000     0.8000    -8.6000    -3.9000    -4.7000    -5.5000    -5.5000    -3.1000    -3.9000    -6.3000    -7.0000    -5.5000     1.6000    -3.1000    -3.9000   -10.9000    -3.9000    -6.3000    -7.0000    -1.6000    -4.7000    -6.3000   -10.2000    -9.4000    -7.8000    -4.7000    -2.3000    -9.4000   -10.2000    -7.8000   -10.2000   -13.3000   -10.2000   -11.7000   -17.2000   -18.8000   -17.2000   -13.3000   -10.9000   -12.5000   -19.5000   -21.1000   -21.1000   -14.8000   -10.2000   -14.8000   -17.2000   -21.1000   -18.0000   -19.5000   -15.6000   -10.9000   -10.2000   -12.5000   -16.4000   -12.5000   -12.5000    -6.3000    -5.5000    -7.8000    -7.8000    -7.8000    -7.8000    -4.7000    -5.5000    -0.8000    -3.9000    -6.3000    -5.5000    -1.6000     0.8000     3.9000     0.0000    -5.5000    -6.3000    -1.6000     0.8000     3.9000    11.7000     0.8000     0.0000     1.6000     8.6000    11.7000    10.9000     6.3000     3.1000     3.9000     5.5000    11.7000    12.5000    14.8000    14.1000    14.1000     9.4000    10.2000    11.7000    15.6000    12.5000    10.2000    10.2000     8.6000    13.3000    18.0000    18.8000    17.2000    14.8000    12.5000    13.3000    18.8000    14.8000    13.3000    13.3000    18.0000    14.1000    12.5000    21.9000    21.9000    15.6000     7.8000    11.7000    15.6000    25.8000    19.5000    16.4000    17.2000    21.1000    17.2000    15.6000    25.0000    27.3000    25.8000    21.9000    23.4000    24.2000    32.8000    34.4000    34.4000    38.3000    43.0000    38.3000    35.9000    37.5000    49.2000    58.6000    56.3000    57.8000    60.9000    68.8000    63.3000    66.4000    67.2000    72.7000    76.6000    80.5000    85.9000    83.6000    82.0000    90.6000    89.1000    90.6000    98.4000   105.5000   102.3000    96.1000    98.4000    99.2000   104.7000   116.4000   119.5000   123.4000   119.5000   125.0000   125.0000   133.6000   130.5000   124.2000   118.8000   109.4000   107.0000   106.3000   105.5000    94.5000    93.0000    86.7000    77.3000    73.4000    71.9000    67.2000    57.0000    52.3000    43.0000    31.3000    28.1000    30.5000    21.9000    16.4000    10.9000     3.1000    -3.1000     2.3000    10.2000     7.8000    10.9000    15.6000    14.8000    21.9000    33.6000    32.8000    37.5000    44.5000    41.4000    48.4000    58.6000    68.8000    68.0000    71.1000    76.6000    75.8000    75.8000    71.1000    73.4000    71.1000    69.5000    68.0000    69.5000    79.7000    89.8000    98.4000   111.7000   117.2000   131.3000   150.0000   169.5000   184.4000   204.7000   215.6000   222.7000   232.0000   250.0000   268.0000   276.6000   286.7000   295.3000   312.5000   323.4000   335.2000   346.1000   364.1000   382.8000   389.8000   402.3000   418.0000   433.6000   439.8000   450.0000   453.9000   462.5000   471.9000   483.6000   492.2000   496.1000   500.8000   493.8000   500.0000   503.9000   505.5000   506.3000   504.7000   496.1000   493.8000   493.0000   490.6000   485.9000   482.8000   475.8000   468.0000   460.2000   455.5000   451.6000   450.8000   445.3000   436.7000   430.5000   430.5000   423.4000   424.2000   424.2000   419.5000   410.2000   409.4000   410.9000   414.1000   418.8000   421.1000   422.7000   425.8000   429.7000   439.8000   453.1000   465.6000   471.1000   477.3000   485.9000   500.8000   510.9000   522.7000   537.5000   543.8000   553.9000   574.2000   591.4000   607.0000   621.1000   632.8000   628.9000   635.2000   646.9000   662.5000   682.8000   704.7000   728.1000   744.5000   768.8000   778.9000   791.4000   797.7000   803.1000   802.3000   814.1000   821.1000   821.9000   826.6000   821.9000   817.2000   821.1000   823.4000   823.4000   828.1000   835.2000   852.3000   876.6000   903.9000   918.0000   901.6000   858.6000   776.6000   671.1000   568.0000   480.5000   411.7000   371.1000   360.2000   382.0000   425.0000   478.9000   511.7000   485.2000   396.1000   239.8000    82.8000   -52.3000  -150.8000  -213.3000  -239.8000  -243.8000  -223.4000  -187.5000  -125.8000   -69.5000   -43.0000   -53.1000   -95.3000  -123.4000  -109.4000   -47.7000    26.6000    75.0000    89.1000    85.2000    68.8000    49.2000    22.7000     4.7000     1.6000   -10.9000   -22.7000   -32.8000   -45.3000   -70.3000  -102.3000  -136.7000  -174.2000  -199.2000  -216.4000  -224.2000  -217.2000  -203.1000  -193.0000  -181.3000  -168.0000  -154.7000  -142.2000  -124.2000  -109.4000   -99.2000   -82.0000   -67.2000   -54.7000   -39.8000   -18.8000    -5.5000    10.9000    26.6000    46.9000    61.7000    78.1000    94.5000   109.4000   118.8000   131.3000   143.0000   164.1000   184.4000   198.4000   208.6000   225.0000   238.3000   256.3000   271.9000   279.7000   281.3000   272.7000   250.0000   219.5000   175.8000   124.2000    78.1000    50.8000    43.0000    39.1000    35.9000    37.5000    50.0000    46.9000    49.2000    48.4000    51.6000    62.5000    71.1000    79.7000    86.7000   101.6000   120.3000   163.3000   218.0000   253.1000   174.2000   -69.5000  -358.6000  -512.5000  -530.5000  -482.0000  -420.3000  -350.0000  -313.3000  -375.8000  -495.3000  -622.7000  -732.8000  -840.6000  -934.4000 -1025.8000 -1083.6000 -1120.3000 -1129.7000 -1141.4000 -1171.9000 -1200.8000 -1218.8000 -1197.7000 -1157.8000 -1097.7000 -1043.0000 -1004.7000  -983.6000  -964.1000  -947.7000  -929.7000  -907.8000  -885.2000  -861.7000  -833.6000  -802.3000  -763.3000  -721.1000  -678.1000  -628.9000  -585.9000  -537.5000  -484.4000  -430.5000  -375.8000  -335.2000  -313.3000  -311.7000  -312.5000  -305.5000  -295.3000  -282.8000  -269.5000  -252.3000  -225.0000  -198.4000  -176.6000  -162.5000  -160.2000  -155.5000  -145.3000  -116.4000   -85.9000   -46.9000   -12.5000    32.0000    76.6000   119.5000   165.6000   220.3000   269.5000   306.3000   343.8000   380.5000   426.6000   465.6000   504.7000   531.3000   555.5000   570.3000   579.7000   586.7000   586.7000   584.4000   573.4000   564.8000   557.0000   551.6000   550.8000   550.0000   553.9000   559.4000   561.7000   566.4000   567.2000   574.2000   582.8000   582.0000   576.6000   561.7000   550.8000   543.0000   527.3000   511.7000   493.0000   462.5000   426.6000   400.0000   386.7000   390.6000   395.3000   397.7000   400.8000   414.1000   415.6000   407.8000   382.8000   343.0000   292.2000   246.9000   204.7000   171.1000   145.3000   110.2000    81.3000    46.1000    22.7000     2.3000   -18.0000   -43.0000   -63.3000   -82.0000   -98.4000  -107.8000  -124.2000  -140.6000  -158.6000  -188.3000  -226.6000  -260.2000  -289.8000  -318.0000  -337.5000  -345.3000  -355.5000  -364.8000  -364.8000  -365.6000  -363.3000  -354.7000  -348.4000  -340.6000  -332.8000  -318.0000  -303.1000  -285.2000  -264.8000  -251.6000  -235.2000  -211.7000  -185.2000  -155.5000  -119.5000   -86.7000   -56.3000   -18.0000    21.9000    48.4000    74.2000    96.9000   112.5000   122.7000   139.1000   158.6000   180.5000   200.8000   207.0000   206.3000   216.4000   225.8000   239.8000   250.8000   254.7000   254.7000   257.0000   268.0000   274.2000   289.8000   295.3000   297.7000   291.4000   291.4000   283.6000   279.7000   276.6000   275.0000   268.0000   263.3000   253.9000   242.2000   243.8000   250.8000   257.0000   263.3000   281.3000   304.7000   338.3000   392.2000   453.1000   532.8000   621.1000   713.3000   779.7000   822.7000   817.2000   771.9000   717.2000   659.4000   610.9000   568.0000   535.9000   510.9000   496.9000   493.0000   500.0000   514.8000   537.5000   565.6000   599.2000   618.8000   610.9000   547.7000   378.1000   149.2000   -28.1000  -109.4000  -132.8000  -146.9000  -150.8000  -139.1000  -125.0000  -114.1000   -90.6000   -43.8000    61.7000   250.0000   517.2000   722.7000   812.5000   821.9000   807.0000   788.3000   779.7000   771.9000   745.3000   703.1000   619.5000   527.3000   439.1000   352.3000   260.9000   190.6000   150.8000   136.7000   114.1000   111.7000   116.4000   121.1000   120.3000   116.4000   129.7000   151.6000   171.9000   196.9000   242.2000   314.8000   397.7000   468.8000   497.7000   426.6000   190.6000  -140.6000  -393.0000  -464.8000  -449.2000  -462.5000  -471.9000  -460.9000  -434.4000  -418.8000  -396.1000  -375.8000  -354.7000  -341.4000  -321.9000  -294.5000  -258.6000  -221.1000  -171.9000  -122.7000   -75.8000   -24.2000    26.6000    79.7000   137.5000   194.5000   238.3000   278.9000   310.9000   339.8000   368.8000   389.1000   405.5000   420.3000   431.3000   439.1000   446.1000   461.7000   482.0000   488.3000   489.1000   496.9000   501.6000   504.7000   491.4000   474.2000   455.5000   432.8000   409.4000   382.8000   360.9000   335.9000   312.5000   297.7000   274.2000   250.0000   232.0000   211.7000   190.6000   171.9000   160.2000   143.8000   128.9000   122.7000   118.8000   118.0000   118.0000   120.3000   136.7000   157.8000   181.3000   202.3000   220.3000   234.4000   246.9000   260.9000   270.3000   274.2000   281.3000   278.1000   264.8000   262.5000   256.3000   252.3000   243.0000   232.8000   219.5000   194.5000   184.4000   171.9000   162.5000   146.1000   132.8000   113.3000    89.8000    75.8000    69.5000    51.6000    35.9000    14.1000    -3.9000   -18.0000   -35.9000   -47.7000   -53.9000   -64.8000   -82.8000   -99.2000  -101.6000  -112.5000  -126.6000  -129.7000  -139.1000  -152.3000  -157.8000  -160.9000  -168.8000  -175.8000  -178.1000  -185.9000  -195.3000  -194.5000  -193.0000  -200.8000  -207.8000  -216.4000  -225.0000  -224.2000  -227.3000  -229.7000  -236.7000  -241.4000  -249.2000  -255.5000  -253.1000  -245.3000  -248.4000  -251.6000  -259.4000  -260.9000  -260.2000  -260.9000  -262.5000  -264.1000  -271.1000  -272.7000  -278.1000  -278.9000  -278.9000  -278.9000  -278.1000  -288.3000  -289.8000  -290.6000  -292.2000  -292.2000  -297.7000  -299.2000  -306.3000  -309.4000  -307.8000  -305.5000  -314.1000  -318.0000  -323.4000  -323.4000  -324.2000  -325.0000  -325.0000  -325.0000  -325.8000  -334.4000  -333.6000  -331.3000  -326.6000  -327.3000  -324.2000  -321.9000  -323.4000  -320.3000  -320.3000  -318.8000  -311.7000  -306.3000  -307.8000  -306.3000  -302.3000  -296.9000  -289.1000  -287.5000  -282.8000  -285.2000  -279.7000  -275.0000  -266.4000  -257.0000  -247.7000  -250.0000  -248.4000  -244.5000  -234.4000  -221.9000  -214.8000  -212.5000  -208.6000  -199.2000  -195.3000  -180.5000  -171.9000  -164.1000  -166.4000  -160.9000  -147.7000  -135.2000  -125.0000  -118.8000  -114.1000  -107.0000   -89.1000   -77.3000   -63.3000   -56.3000   -46.9000   -44.5000   -32.0000   -21.1000   -10.2000     8.6000    21.1000    31.3000    39.1000    55.5000    71.1000    93.0000   113.3000   125.0000   137.5000   160.9000   181.3000   203.9000   231.3000   242.2000   253.1000   260.2000   272.7000   281.3000   299.2000   314.8000   330.5000   339.1000   345.3000   357.0000   368.0000   377.3000   376.6000   371.1000   360.2000   361.7000   364.1000   364.1000   371.9000   375.0000   375.0000   372.7000   365.6000   357.0000   357.8000   361.7000   364.1000   371.9000   378.9000   389.8000   403.1000   403.9000   396.1000   385.2000   378.1000   381.3000   391.4000   414.1000   439.8000   462.5000   492.2000   518.8000   542.2000   557.8000   566.4000   565.6000   565.6000   572.7000   570.3000   555.5000   535.2000   499.2000   446.9000   387.5000   313.3000   227.3000   142.2000    68.8000    21.9000    12.5000    38.3000    85.9000   150.0000   228.1000   301.6000   328.1000   309.4000   242.2000   141.4000    42.2000   -37.5000  -105.5000  -145.3000  -163.3000  -161.7000  -150.0000  -156.3000  -173.4000  -203.9000  -225.8000  -238.3000  -225.0000  -189.8000  -135.2000   -69.5000     3.1000    77.3000   140.6000   218.0000   306.3000   405.5000   498.4000   596.9000   700.8000   833.6000   992.2000  1126.6000  1215.6000  1256.3000  1242.2000  1189.1000  1127.3000  1064.8000  1016.4000   961.7000   904.7000   835.9000   774.2000   710.2000   654.7000   603.1000   565.6000   528.1000   471.1000   412.5000   329.7000   193.8000   -22.7000  -266.4000  -447.7000  -530.5000  -561.7000  -567.2000  -556.3000  -537.5000  -521.1000  -507.8000  -482.8000  -458.6000  -424.2000  -385.9000  -335.2000  -295.3000  -255.5000  -218.0000  -171.9000  -133.6000  -110.9000  -112.5000  -145.3000  -182.0000  -224.2000  -280.5000  -345.3000  -388.3000  -411.7000  -416.4000  -400.0000  -379.7000  -353.9000  -327.3000  -305.5000  -287.5000  -257.8000  -225.8000  -196.9000  -173.4000  -152.3000  -136.7000  -124.2000  -108.6000   -95.3000   -80.5000   -62.5000   -40.6000   -26.6000   -12.5000     3.9000    23.4000    39.1000    53.9000    71.1000    85.9000   102.3000   114.8000   127.3000   132.8000   139.8000   135.9000   143.8000   145.3000   150.0000   149.2000   150.0000   137.5000   128.9000   132.0000   131.3000   126.6000   115.6000   102.3000    92.2000    93.8000    89.8000    86.7000    77.3000    73.4000    64.8000    60.9000    60.9000    54.7000    53.9000    48.4000    44.5000    32.8000    29.7000    23.4000    27.3000    28.9000    30.5000    36.7000    51.6000    52.3000    50.8000    61.7000    57.8000    55.5000    43.8000    39.1000    33.6000    29.7000    25.0000    14.8000     4.7000    -2.3000    -6.3000   -14.8000   -23.4000   -31.3000   -43.8000   -58.6000   -64.8000   -73.4000   -79.7000   -82.0000   -93.0000  -103.1000  -113.3000  -114.1000  -117.2000  -116.4000  -111.7000  -124.2000  -132.8000  -138.3000  -139.1000  -135.2000  -135.2000  -140.6000  -146.1000  -150.0000  -154.7000  -158.6000  -157.8000  -164.1000  -171.1000  -178.1000  -181.3000  -186.7000  -183.6000  -183.6000  -184.4000  -190.6000  -191.4000  -193.8000  -193.8000  -186.7000  -190.6000  -190.6000  -192.2000  -192.2000  -195.3000  -191.4000  -185.2000  -189.8000  -191.4000  -189.1000  -187.5000  -185.9000  -180.5000  -179.7000  -181.3000  -180.5000  -182.0000  -183.6000  -175.8000  -177.3000  -181.3000  -182.8000  -180.5000  -175.0000  -171.9000  -166.4000  -168.8000  -168.0000  -168.8000  -167.2000  -171.1000  -161.7000  -160.9000  -164.8000  -172.7000  -178.9000  -182.0000  -182.8000  -178.9000  -182.0000  -185.2000  -185.9000  -193.0000  -196.9000  -188.3000  -190.6000  -192.2000  -200.8000  -203.1000  -203.9000  -203.1000  -196.9000  -202.3000  -195.3000  -197.7000  -199.2000  -199.2000  -184.4000  -173.4000  -169.5000  -163.3000  -161.7000  -149.2000  -132.8000  -113.3000  -102.3000   -89.1000   -83.6000   -74.2000   -60.2000   -43.8000   -29.7000   -27.3000   -24.2000   -28.1000   -16.4000    -6.3000     3.9000    12.5000    16.4000    21.9000    35.2000    48.4000    75.0000   100.8000   124.2000   146.9000   168.0000   192.2000   217.2000   245.3000   268.0000   285.2000   306.3000   336.7000   364.8000   401.6000   426.6000   443.0000   450.0000   443.8000   414.8000   370.3000   328.9000   293.0000   278.1000   275.8000   284.4000   292.2000   301.6000   300.8000   294.5000   285.2000   284.4000   296.1000   314.1000   337.5000   360.2000   388.3000   418.8000   468.8000   526.6000   537.5000   429.7000   190.6000   -41.4000  -160.9000  -185.9000  -161.7000  -116.4000   -69.5000   -68.8000  -130.5000  -203.9000  -266.4000  -324.2000  -372.7000  -408.6000  -446.1000  -482.0000  -504.7000  -526.6000  -551.6000  -579.7000  -606.3000  -625.8000  -629.7000  -612.5000  -590.6000  -579.7000  -584.4000  -608.6000  -635.9000  -659.4000  -681.3000  -698.4000  -720.3000  -741.4000  -756.3000  -775.8000  -789.1000  -798.4000  -809.4000  -821.1000  -834.4000  -843.8000  -847.7000  -848.4000  -844.5000  -855.5000  -860.9000  -866.4000  -869.5000  -867.2000  -858.6000  -854.7000  -853.1000  -852.3000  -858.6000  -861.7000  -845.3000  -833.6000  -838.3000  -840.6000  -835.2000  -825.8000  -821.9000  -812.5000  -803.9000  -800.8000  -790.6000  -784.4000  -774.2000  -767.2000  -757.8000  -753.1000  -746.9000  -745.3000  -739.1000  -735.2000  -730.5000  -724.2000  -711.7000  -710.2000  -711.7000  -704.7000  -697.7000  -689.1000  -689.1000  -690.6000  -681.3000  -665.6000  -654.7000  -643.8000  -628.1000  -620.3000  -618.0000  -619.5000  -607.8000  -592.2000  -575.8000  -568.8000  -560.2000  -551.6000  -539.8000  -524.2000  -508.6000  -493.0000  -478.1000  -470.3000  -460.9000  -453.1000  -432.8000  -413.3000  -401.6000  -384.4000  -378.9000  -373.4000  -371.1000  -353.1000  -346.1000  -343.8000  -343.0000  -343.0000  -335.2000  -328.1000  -320.3000  -320.3000  -315.6000  -309.4000  -304.7000  -295.3000  -285.9000  -275.0000  -264.1000  -254.7000  -243.0000  -237.5000  -222.7000  -216.4000  -212.5000  -210.9000  -204.7000  -200.0000  -194.5000  -186.7000  -188.3000  -184.4000  -175.8000  -172.7000  -170.3000  -161.7000  -157.8000  -157.0000  -151.6000  -150.8000  -156.3000  -149.2000  -151.6000  -157.0000  -157.8000  -160.9000  -170.3000  -173.4000  -175.0000  -174.2000  -177.3000  -180.5000  -191.4000  -194.5000  -188.3000  -181.3000  -177.3000  -177.3000  -178.9000  -178.1000  -175.8000  -169.5000  -160.9000  -157.0000  -150.8000  -150.0000  -143.0000  -132.8000  -130.5000  -125.0000  -115.6000  -108.6000  -104.7000   -98.4000   -92.2000   -89.1000   -81.3000   -81.3000   -82.8000   -78.9000   -76.6000   -71.1000   -70.3000   -67.2000   -69.5000   -71.9000   -68.0000   -65.6000   -67.2000   -68.8000   -72.7000   -78.9000   -78.1000   -78.9000   -73.4000   -71.1000   -71.1000   -68.0000   -70.3000   -73.4000   -68.0000   -63.3000   -63.3000   -62.5000   -68.8000   -71.1000   -68.0000   -60.2000   -60.2000   -55.5000   -55.5000   -55.5000   -51.6000   -49.2000   -42.2000   -39.1000   -38.3000   -43.8000   -43.8000   -39.1000   -31.3000   -31.3000   -32.0000   -35.2000   -39.1000   -39.1000   -35.2000   -29.7000   -27.3000   -29.7000   -39.8000   -39.1000   -35.9000   -32.8000   -29.7000   -33.6000   -33.6000   -31.3000   -29.7000   -28.9000   -27.3000   -23.4000   -22.7000   -27.3000   -28.9000   -25.0000   -19.5000   -20.3000   -21.1000   -20.3000   -21.9000   -19.5000   -21.1000   -20.3000   -21.1000   -21.9000   -28.9000   -26.6000   -25.0000   -23.4000   -20.3000   -19.5000   -30.5000   -35.2000   -28.9000   -25.8000   -23.4000   -25.8000   -29.7000   -38.3000   -37.5000   -32.8000   -26.6000   -28.9000   -31.3000   -34.4000   -35.2000   -30.5000   -31.3000   -28.9000   -25.0000   -26.6000   -32.8000   -32.8000   -28.9000   -28.9000   -21.9000   -20.3000   -21.1000   -21.1000   -18.8000   -11.7000   -13.3000    -7.8000   -10.2000   -16.4000   -14.8000    -8.6000    -3.1000    -4.7000    -3.1000    -8.6000    -8.6000    -6.3000     4.7000     3.9000     7.0000     7.8000     2.3000     8.6000     9.4000    17.2000    18.8000    19.5000    12.5000    14.1000    18.8000    20.3000    20.3000    22.7000    20.3000    21.1000    21.9000    27.3000    32.0000    35.9000    39.8000    35.2000    39.1000    43.8000    46.9000    50.8000    52.3000    50.8000    53.1000    55.5000    57.8000    66.4000    68.8000    69.5000    68.0000    69.5000    74.2000    80.5000    78.1000    81.3000    82.8000    80.5000    83.6000    82.0000    87.5000    89.8000    87.5000    87.5000    87.5000    88.3000    90.6000    91.4000    98.4000    90.6000    85.9000    93.0000    90.6000    92.2000    93.0000    93.0000    85.2000    85.2000    87.5000    85.9000    87.5000    84.4000    84.4000    80.5000    78.9000    72.7000    70.3000    72.7000    74.2000    62.5000    61.7000    65.6000    71.1000    70.3000    65.6000    64.8000    66.4000    71.1000    69.5000    69.5000    76.6000    76.6000    78.1000    80.5000    74.2000    75.0000    78.1000    83.6000    80.5000    79.7000    83.6000    82.0000    83.6000    87.5000    86.7000    83.6000    82.0000    87.5000    85.2000    91.4000    90.6000    87.5000    82.0000    85.2000    92.2000    95.3000    98.4000    92.2000    87.5000    85.9000    91.4000    93.0000    92.2000    94.5000    86.7000    78.1000    69.5000    64.8000    68.8000    67.2000    60.2000    46.1000    35.9000    31.3000    26.6000    18.8000    11.7000     0.8000    -6.3000   -10.2000   -17.2000   -12.5000    -2.3000    -0.8000    -7.8000   -14.8000    -8.6000    -4.7000    -3.9000    -3.1000    -0.8000    -1.6000     0.8000     7.8000    14.8000    18.8000    22.7000    23.4000    24.2000    29.7000    35.2000    42.2000    45.3000    46.9000    47.7000    50.8000    47.7000    52.3000    54.7000    57.8000    57.8000    57.0000    60.9000    65.6000    74.2000    78.9000    76.6000    75.8000    75.0000    80.5000    84.4000    90.6000    92.2000    91.4000    91.4000    88.3000    92.2000    97.7000    96.1000   100.0000   101.6000    98.4000    96.1000    97.7000    98.4000    98.4000   100.8000    96.1000    90.6000    92.2000    96.1000    98.4000    95.3000    92.2000    80.5000    81.3000    82.0000    87.5000    90.6000    92.2000    80.5000    78.1000    79.7000    82.0000    87.5000    78.1000    85.2000    85.2000    78.1000    78.9000    82.8000    83.6000    82.0000    81.3000    76.6000    75.8000    75.0000    76.6000    75.8000    74.2000    70.3000    67.2000    70.3000    72.7000    74.2000    74.2000    73.4000    63.3000    64.8000    66.4000    71.9000    72.7000    71.1000    66.4000    64.1000    64.8000    67.2000    71.9000    74.2000    71.9000    65.6000    63.3000    69.5000    67.2000    67.2000    68.0000    62.5000    62.5000    64.8000    65.6000    66.4000    69.5000    64.1000    59.4000    61.7000    63.3000    67.2000    64.8000    67.2000    61.7000    62.5000    62.5000    60.9000    66.4000    61.7000    60.9000    59.4000    59.4000    60.2000    61.7000    60.9000    68.0000    60.9000    60.2000    63.3000    66.4000    71.9000    71.1000    66.4000    58.6000    67.2000    67.2000    71.1000    68.0000    66.4000    67.2000    68.0000    68.8000    66.4000    74.2000    75.8000    74.2000    70.3000    72.7000    75.0000    75.8000    77.3000    78.9000    79.7000    76.6000    78.9000    78.9000    78.9000    86.7000    85.9000    82.8000    82.8000    83.6000    82.8000    80.5000    79.7000    75.8000    68.8000    68.0000    68.0000    69.5000    68.0000    63.3000    57.8000    53.9000    46.9000    39.8000    36.7000    29.7000    18.0000    11.7000     7.0000     3.1000     2.3000     0.8000     1.6000    -3.1000    -7.8000    -6.3000    -4.7000     0.8000     3.9000     4.7000     0.0000     3.1000     0.0000     5.5000     8.6000     6.3000     4.7000     7.8000     8.6000    12.5000    23.4000    16.4000    18.0000    16.4000    16.4000    16.4000    21.9000    26.6000    27.3000    27.3000    28.1000    29.7000    32.8000    33.6000    34.4000    38.3000    39.8000    40.6000    44.5000    52.3000    58.6000    59.4000    58.6000    53.1000    56.3000    59.4000    64.8000    64.8000    64.8000    60.2000    53.9000    55.5000    57.0000    64.8000    60.9000    57.0000    53.1000    49.2000    49.2000    52.3000    48.4000    39.8000    39.1000    38.3000    24.2000    16.4000     6.3000     0.0000    -7.0000   -16.4000   -25.8000   -32.0000   -32.8000   -29.7000   -28.9000   -29.7000   -28.1000   -28.9000   -23.4000    -8.6000    -0.8000     7.8000    19.5000    25.0000    28.9000    35.2000    44.5000    58.6000    64.1000    68.0000    77.3000    85.2000    93.0000    93.8000   100.0000   100.8000   107.8000   117.2000   121.9000   125.0000   126.6000   131.3000   127.3000   126.6000   137.5000   143.8000   141.4000   139.8000   132.8000   128.1000   137.5000   143.8000   142.2000   137.5000   131.3000   133.6000   128.9000   132.8000   134.4000   136.7000   129.7000   121.1000   121.9000   121.1000   128.9000   122.7000   119.5000   121.1000   115.6000   113.3000   110.2000   118.0000   118.0000   110.9000   105.5000   101.6000   107.0000   109.4000   105.5000   108.6000   103.9000    96.1000    96.1000    98.4000    98.4000    92.2000    93.0000    91.4000    85.9000    86.7000    86.7000    82.0000    86.7000    93.0000    85.2000    76.6000    79.7000    84.4000    81.3000    83.6000    78.1000    72.7000    75.0000    77.3000    78.1000    75.8000    75.8000    74.2000    75.0000    73.4000    75.0000    76.6000    78.1000    78.1000    66.4000    63.3000    64.8000    72.7000    73.4000    69.5000    64.1000    61.7000    60.9000    62.5000    67.2000    62.5000    63.3000    56.3000    57.0000    59.4000    57.8000    59.4000    59.4000    55.5000    51.6000    52.3000    53.1000    56.3000    59.4000    52.3000    48.4000    47.7000    50.8000    55.5000    58.6000    55.5000    46.1000    46.1000    49.2000    48.4000    50.0000    54.7000    50.8000    50.0000    52.3000    45.3000    41.4000    48.4000    49.2000    45.3000    44.5000    43.0000    42.2000    46.1000    48.4000    41.4000    37.5000    39.8000    37.5000    35.2000    42.2000    39.8000    36.7000    37.5000    39.1000    37.5000    39.8000    42.2000    38.3000    33.6000    32.0000    32.0000    34.4000    39.1000    37.5000    35.2000    30.5000    32.0000    32.0000    35.2000    38.3000    36.7000    32.8000    28.9000    30.5000    31.3000    34.4000    32.8000    31.3000    31.3000    28.1000    21.9000    28.9000    34.4000    28.9000    30.5000    26.6000    28.9000    28.1000    32.8000    35.9000    31.3000    31.3000    28.9000    25.8000    28.9000    35.2000    33.6000    30.5000    24.2000    24.2000    25.0000    24.2000    25.0000    27.3000    28.9000    19.5000    18.0000    21.1000    27.3000    28.1000    24.2000    19.5000    18.0000    22.7000    24.2000    22.7000    26.6000    25.8000    21.9000    23.4000    25.0000    28.9000    25.8000    28.9000    25.8000    21.1000    18.8000    22.7000    25.8000    24.2000    24.2000    22.7000    22.7000    25.0000    28.1000    25.0000    29.7000    24.2000    19.5000    20.3000    27.3000    27.3000    20.3000    23.4000    23.4000    20.3000    21.9000    30.5000    28.9000    28.1000    24.2000    21.1000    22.7000    22.7000    26.6000    28.1000    28.1000    19.5000    18.8000    21.9000    24.2000    28.1000    25.8000    22.7000    17.2000    24.2000    23.4000    27.3000    28.1000    29.7000    26.6000    25.8000    27.3000    25.0000    21.9000    22.7000    20.3000    18.8000    18.8000    21.1000    22.7000    30.5000    28.1000    25.0000    18.0000    18.0000    20.3000    25.8000    28.1000    24.2000    13.3000    17.2000    18.8000    24.2000    23.4000    25.0000    21.9000    21.1000    19.5000    14.1000    17.2000    19.5000    16.4000    14.8000    12.5000    13.3000    10.9000    11.7000    17.2000    14.1000     8.6000     7.0000    11.7000    18.0000    18.8000    16.4000    11.7000    14.8000    13.3000    10.9000    18.0000    20.3000    14.1000     9.4000     9.4000     9.4000    14.8000    16.4000    14.8000    10.9000    15.6000    18.0000    14.8000    20.3000    14.1000    10.9000     7.0000    13.3000    10.9000    14.8000    19.5000    11.7000     7.8000     5.5000     7.8000     7.0000    13.3000    12.5000    13.3000     8.6000     7.0000     3.1000     5.5000     3.1000     6.3000     9.4000     8.6000     2.3000     7.8000    10.2000    14.1000    13.3000     6.3000     5.5000     6.3000    11.7000    12.5000    13.3000     7.0000    -0.8000     1.6000     7.8000    11.7000     7.8000     4.7000    11.7000     8.6000     2.3000     8.6000     8.6000    13.3000    12.5000     6.3000     3.1000     5.5000     8.6000     5.5000     7.8000     6.3000     3.1000     4.7000     9.4000     9.4000     7.8000     9.4000     8.6000     2.3000     2.3000     4.7000     5.5000    10.2000     7.0000    -0.8000     2.3000     4.7000     7.0000     7.8000     7.0000    -2.3000    -1.6000     2.3000     4.7000     8.6000     6.3000     5.5000    -4.7000    -4.7000    -0.8000     2.3000    -1.6000     0.0000    -6.3000    -5.5000    -4.7000    -0.8000     3.9000     0.8000     3.1000     0.8000    -4.7000    -2.3000    -1.6000    -2.3000     0.8000     0.8000    -2.3000    -2.3000    -3.1000    -3.1000    -0.8000     0.8000     0.0000    -6.3000    -1.6000     0.0000    -3.1000    -4.7000    -7.0000    -9.4000   -13.3000    -5.5000    -5.5000    -5.5000    -8.6000   -10.9000   -12.5000   -10.9000    -6.3000    -7.8000    -7.0000   -11.7000   -14.8000   -14.1000   -10.2000    -5.5000    -7.8000    -7.8000   -16.4000   -18.8000   -15.6000   -14.8000   -16.4000   -19.5000   -25.0000   -27.3000   -27.3000   -25.8000   -28.1000   -27.3000   -28.1000   -33.6000   -31.3000   -31.3000   -30.5000   -28.1000   -25.0000   -28.1000   -29.7000   -26.6000   -18.0000   -16.4000   -14.8000   -14.1000   -18.0000   -16.4000    -9.4000    -1.6000    -3.1000     0.0000    -8.6000   -14.1000    -8.6000     0.0000     2.3000     0.8000    -0.8000    -2.3000    -3.1000     1.6000    10.2000     7.8000     7.0000     0.0000     0.0000    -0.8000     3.1000     6.3000     5.5000     3.9000    -0.8000     2.3000     4.7000     7.8000     6.3000     7.0000     2.3000     2.3000    -0.8000     0.8000     5.5000     3.1000     0.0000   -11.7000    -3.1000     0.8000     5.5000     5.5000     3.9000     0.0000    -3.1000     2.3000     3.1000     5.5000     6.3000     6.3000     5.5000     3.1000     0.8000     2.3000     4.7000     7.8000     2.3000    -2.3000    -0.8000    -3.1000     1.6000     0.8000     1.6000    -2.3000    -4.7000    -4.7000     0.8000     1.6000     0.8000    -0.8000    -3.1000    -3.9000    -7.0000    -3.1000    -0.8000    -2.3000    -5.5000    -4.7000    -7.0000    -2.3000    -1.6000     0.8000    -0.8000    -6.3000    -2.3000    -2.3000    -1.6000    -0.8000    -4.7000    -9.4000    -6.3000    -5.5000    -3.1000     3.9000     4.7000    -3.9000   -10.9000    -6.3000    -7.8000    -3.1000    -2.3000     0.0000    -8.6000    -7.0000    -6.3000    -0.8000     6.3000     0.8000    -3.1000    -9.4000    -7.0000    -7.8000    -0.8000    -0.8000    -2.3000    -6.3000    -7.0000    -7.0000    -3.1000     0.8000     1.6000     0.0000    -3.1000    -2.3000    -2.3000     0.8000     0.0000    -3.1000    -4.7000    -7.8000    -6.3000    -4.7000    -0.8000    -3.9000    -7.0000    -3.1000    -4.7000    -5.5000    -4.7000    -4.7000    -6.3000    -8.6000    -6.3000    -7.8000    -5.5000    -4.7000    -5.5000   -13.3000   -10.2000    -7.0000    -7.0000    -8.6000    -8.6000   -11.7000   -15.6000   -10.2000    -8.6000    -7.8000    -3.9000    -5.5000   -10.2000   -15.6000   -18.0000   -14.1000   -17.2000   -10.9000   -16.4000   -17.2000   -14.1000   -12.5000   -11.7000    -7.8000   -10.2000   -15.6000   -12.5000   -10.2000    -2.3000    -2.3000    -3.1000   -12.5000   -14.8000   -11.7000    -8.6000    -3.9000    -5.5000    -7.8000   -14.8000   -14.1000   -14.1000    -9.4000    -6.3000    -5.5000   -10.9000   -17.2000   -18.8000   -14.1000    -7.8000    -7.0000    -7.8000   -15.6000   -18.8000   -18.8000   -16.4000    -6.3000    -9.4000   -10.9000   -15.6000   -10.2000   -10.9000    -7.8000   -10.9000   -14.8000   -12.5000   -13.3000   -18.8000   -14.8000    -3.1000    -3.9000   -10.9000   -10.9000   -10.9000    -9.4000    -6.3000    -8.6000   -10.2000    -9.4000   -10.9000   -12.5000    -7.8000    -7.8000    -9.4000   -17.2000   -18.8000   -15.6000    -7.0000    -4.7000    -5.5000    -7.8000   -17.2000   -15.6000   -10.9000   -14.1000    -9.4000    -9.4000   -17.2000   -17.2000   -14.8000   -12.5000   -11.7000    -8.6000   -11.7000   -10.2000    -9.4000   -11.7000    -7.0000    -7.0000   -11.7000   -14.8000   -14.1000   -13.3000    -7.8000    -4.7000    -6.3000   -11.7000   -10.2000    -8.6000    -5.5000    -1.6000    -4.7000    -4.7000   -11.7000    -9.4000    -9.4000   -11.7000    -5.5000    -1.6000    -3.1000     0.8000    -3.1000    -2.3000     1.6000     3.9000     0.8000    -7.0000    -3.1000     0.8000     9.4000     9.4000     9.4000     0.8000     1.6000     6.3000    11.7000    14.1000    13.3000    12.5000     7.8000    18.0000    14.8000    14.8000    18.0000    20.3000    17.2000    14.1000    21.1000    22.7000    28.1000    29.7000    24.2000    26.6000    28.9000    29.7000    32.8000    37.5000    38.3000    32.8000    31.3000    34.4000    34.4000    39.8000    40.6000    42.2000    39.1000    40.6000    39.8000    45.3000    46.9000    44.5000    43.0000    39.8000    42.2000    48.4000    54.7000    52.3000    52.3000    46.1000    46.1000    50.0000    53.9000    57.0000    57.0000    55.5000    51.6000    51.6000    55.5000    58.6000    65.6000    67.2000    61.7000    65.6000    64.1000    67.2000    68.8000    71.1000    71.9000    68.8000    75.8000    78.1000    85.2000    84.4000    84.4000    83.6000    86.7000    89.8000    97.7000   105.5000   103.1000   107.0000   103.9000   107.8000   108.6000   117.2000   123.4000   129.7000   126.6000   128.1000   132.0000   135.2000   141.4000   143.8000   149.2000   153.1000   149.2000   150.8000   162.5000   171.1000   170.3000   171.9000   172.7000   177.3000   182.0000   195.3000   197.7000   197.7000   200.8000   203.9000   209.4000   224.2000   228.1000   232.8000   237.5000   241.4000   239.8000   250.0000   265.6000   265.6000   270.3000   275.0000   276.6000   280.5000   293.8000   298.4000   303.9000   308.6000   308.6000   314.8000   320.3000   327.3000   331.3000   335.2000   334.4000   329.7000   328.1000   331.3000   332.0000   335.9000   339.8000   328.9000   320.3000   321.1000   323.4000   317.2000   315.6000   303.1000   291.4000   278.1000   268.0000   253.9000   235.9000   219.5000   191.4000   169.5000   146.1000   128.1000   107.8000    97.7000    92.2000    93.8000    96.9000   112.5000   135.9000   150.0000   160.9000   171.1000   180.5000   185.9000   188.3000   183.6000   164.1000   140.6000   117.2000    96.9000    78.1000    70.3000    57.8000    48.4000    36.7000    28.9000    30.5000    32.0000    20.3000     0.8000   -35.2000  -101.6000  -179.7000  -252.3000  -302.3000  -321.1000  -296.1000  -230.5000  -126.6000    -8.6000   109.4000   200.0000   214.8000   156.3000    59.4000   -21.9000   -80.5000  -108.6000  -131.3000  -136.7000  -137.5000  -131.3000  -123.4000  -110.2000   -94.5000   -84.4000   -84.4000   -87.5000   -94.5000   -98.4000   -96.9000   -91.4000   -86.7000   -78.9000   -59.4000   -43.0000   -31.3000   -21.1000    -8.6000     6.3000    21.1000    41.4000    60.9000    78.9000    95.3000   110.9000   132.8000   150.0000   178.1000   193.0000   205.5000   207.8000   207.8000   208.6000   210.9000   208.6000   201.6000   187.5000   173.4000   157.0000   139.8000   117.2000    91.4000    64.1000    27.3000   -11.7000   -43.8000   -64.1000   -71.1000   -74.2000   -66.4000   -58.6000   -65.6000   -88.3000  -115.6000  -155.5000  -190.6000  -221.9000  -250.8000  -270.3000  -282.0000  -289.8000  -293.0000  -287.5000  -290.6000  -294.5000  -292.2000  -284.4000  -273.4000  -258.6000  -242.2000  -230.5000  -227.3000  -207.8000  -198.4000  -188.3000  -179.7000  -173.4000  -167.2000  -168.8000  -164.8000  -162.5000  -150.8000  -146.1000  -150.8000  -152.3000  -150.8000  -146.9000  -143.0000  -139.8000  -143.0000  -145.3000  -150.0000  -149.2000  -152.3000  -147.7000  -146.9000  -151.6000  -152.3000  -160.9000  -160.9000  -164.1000  -165.6000  -169.5000  -174.2000  -184.4000  -182.8000  -184.4000  -179.7000  -176.6000  -181.3000  -185.2000  -182.0000  -177.3000  -175.0000  -172.7000  -176.6000  -178.1000  -175.0000  -175.8000  -175.8000  -168.8000  -165.6000  -167.2000  -171.9000  -168.8000  -171.1000  -169.5000  -168.8000  -170.3000  -169.5000  -172.7000  -175.8000  -174.2000  -178.1000  -176.6000  -178.9000  -183.6000  -187.5000  -190.6000  -189.1000  -189.1000  -189.1000  -188.3000  -193.0000  -197.7000  -201.6000  -200.8000  -200.8000  -205.5000  -206.3000  -208.6000  -211.7000  -213.3000  -214.1000  -212.5000  -215.6000  -215.6000  -210.9000  -212.5000  -209.4000  -207.8000  -213.3000  -215.6000  -217.2000  -214.8000  -207.8000  -213.3000  -215.6000  -218.0000  -214.1000  -214.1000  -214.1000  -206.3000  -206.3000  -211.7000  -218.0000  -214.8000  -219.5000  -210.9000  -209.4000  -212.5000  -215.6000  -216.4000  -215.6000  -214.8000  -208.6000  -211.7000  -208.6000  -216.4000  -212.5000  -210.2000  -203.9000  -205.5000  -203.9000  -210.2000  -218.0000  -210.2000  -209.4000  -206.3000  -207.0000  -205.5000  -204.7000  -207.8000  -208.6000  -200.0000  -200.0000  -198.4000  -193.0000  -198.4000  -200.0000  -196.1000  -193.0000  -189.8000  -189.8000  -192.2000  -192.2000  -189.8000  -187.5000  -187.5000  -190.6000  -192.2000  -191.4000  -191.4000  -189.1000  -189.1000  -187.5000  -189.1000  -193.0000  -191.4000  -192.2000  -186.7000  -189.8000  -193.0000  -194.5000  -187.5000  -190.6000  -191.4000  -188.3000  -191.4000  -190.6000  -190.6000  -192.2000  -191.4000  -179.7000  -177.3000  -179.7000  -182.8000  -181.3000  -174.2000  -167.2000  -160.2000  -158.6000  -157.8000  -160.2000  -155.5000  -150.8000  -140.6000  -140.6000  -141.4000  -141.4000  -136.7000  -132.8000  -133.6000  -131.3000  -134.4000  -131.3000  -126.6000  -124.2000  -118.8000  -110.2000  -105.5000  -106.3000  -104.7000  -105.5000  -106.3000  -100.0000   -93.0000   -89.1000   -85.9000   -87.5000   -82.8000   -75.8000   -64.1000   -61.7000   -59.4000   -58.6000   -53.9000   -50.0000   -40.6000   -28.9000   -24.2000   -14.8000   -11.7000    -9.4000    -2.3000    14.1000    27.3000    37.5000    51.6000    67.2000    86.7000   115.6000   135.9000   158.6000   178.9000   187.5000   197.7000   207.0000   225.0000   233.6000   234.4000   229.7000   237.5000   246.9000   246.1000   247.7000   242.2000   243.0000   243.0000   239.1000   239.1000   233.6000   221.1000   212.5000   204.7000   200.8000   191.4000   184.4000   174.2000   158.6000   153.1000   150.8000   135.2000   126.6000   121.1000   118.0000   114.8000   104.7000   104.7000   102.3000   107.8000   118.8000   120.3000   123.4000   119.5000   123.4000   127.3000   144.5000   157.8000   172.7000   182.8000   182.8000   187.5000   199.2000   203.1000   205.5000   203.9000   196.9000   189.8000   193.8000   190.6000   187.5000   183.6000   175.0000   159.4000   157.8000   155.5000   154.7000   148.4000   146.9000   141.4000   141.4000   142.2000   151.6000   171.1000   181.3000   177.3000   171.1000   168.8000   174.2000   178.9000   176.6000   178.1000   175.0000   170.3000   169.5000   168.8000   171.9000   170.3000   167.2000   160.2000   150.8000   144.5000   139.8000   140.6000   139.8000   139.8000   147.7000   150.8000   166.4000   177.3000   178.9000   174.2000   165.6000   157.8000   154.7000   153.9000   143.8000   136.7000   121.9000   108.6000    93.8000    75.8000    65.6000    50.0000    27.3000     5.5000    -8.6000   -20.3000   -34.4000   -48.4000   -64.8000   -76.6000   -93.8000  -104.7000  -119.5000  -121.9000  -145.3000  -168.8000  -193.8000  -215.6000  -230.5000  -232.8000  -243.8000  -255.5000  -267.2000  -283.6000  -289.8000  -306.3000  -319.5000  -332.0000  -341.4000  -353.9000  -356.3000  -353.9000  -355.5000  -360.2000  -360.9000  -368.8000  -377.3000  -377.3000  -380.5000  -376.6000  -378.1000  -377.3000  -382.8000  -383.6000  -380.5000  -380.5000  -379.7000  -385.9000  -393.0000  -400.8000  -404.7000  -405.5000  -407.0000  -414.1000  -421.9000  -432.8000  -439.8000  -441.4000  -439.8000  -441.4000  -444.5000  -450.8000  -457.0000  -455.5000  -456.3000  -450.8000  -453.9000  -449.2000  -448.4000  -447.7000  -448.4000  -439.8000  -439.1000  -437.5000  -438.3000  -439.8000  -430.5000  -429.7000  -418.0000  -409.4000  -405.5000  -406.3000  -396.1000  -389.8000  -382.0000  -373.4000  -368.8000  -372.7000  -370.3000  -360.2000  -353.1000  -339.8000  -330.5000  -325.8000  -325.0000  -318.0000  -307.8000  -300.0000  -285.2000  -280.5000  -283.6000  -274.2000  -264.8000  -258.6000  -253.1000  -244.5000  -239.1000  -239.8000  -228.9000  -225.8000  -219.5000  -210.2000  -207.0000  -205.5000  -202.3000  -200.8000  -195.3000  -185.9000  -185.2000  -183.6000  -187.5000  -182.8000  -184.4000  -178.9000  -178.1000  -173.4000  -177.3000  -178.1000  -173.4000  -170.3000  -169.5000  -171.9000  -171.1000  -172.7000  -171.9000  -167.2000  -164.8000  -164.8000  -163.3000  -166.4000  -168.0000  -161.7000  -162.5000  -158.6000  -150.8000  -154.7000  -153.1000  -152.3000  -150.8000  -147.7000  -143.0000  -146.1000  -144.5000  -146.1000  -143.8000  -140.6000  -135.2000  -131.3000  -133.6000  -133.6000  -133.6000  -127.3000  -122.7000  -118.8000  -120.3000  -121.1000  -119.5000  -121.9000  -114.8000  -109.4000  -107.0000  -107.0000   -98.4000  -100.8000   -99.2000   -89.8000   -86.7000   -87.5000   -85.9000   -82.0000   -82.0000   -78.1000   -73.4000   -69.5000   -69.5000   -71.1000   -64.8000   -65.6000   -57.0000   -52.3000   -51.6000   -52.3000   -48.4000   -43.0000   -38.3000   -33.6000   -32.0000   -29.7000   -31.3000   -28.9000   -26.6000   -18.8000   -17.2000   -18.0000   -20.3000   -15.6000   -12.5000    -7.8000    -0.8000    -0.8000    -0.8000     7.0000     3.1000     4.7000    11.7000    18.8000    14.8000    14.8000    18.0000    16.4000    22.7000    32.0000    35.9000    37.5000    33.6000    35.2000    39.1000    50.8000    56.3000    54.7000    57.0000    59.4000    57.8000    61.7000    69.5000    73.4000    78.9000    77.3000    75.8000    74.2000    77.3000    78.9000    84.4000    87.5000    85.9000    84.4000    85.9000    93.8000    94.5000    95.3000    97.7000    90.6000    89.8000    96.9000    97.7000    96.9000    96.9000    96.1000    93.0000    90.6000    87.5000    83.6000    75.8000    73.4000    63.3000    58.6000    61.7000    57.8000    46.9000    37.5000    30.5000    19.5000    16.4000    16.4000     7.8000    -0.8000    -6.3000   -13.3000   -13.3000   -17.2000   -20.3000   -28.9000   -31.3000   -33.6000   -38.3000   -39.8000   -32.0000   -27.3000   -35.9000   -38.3000   -43.8000   -39.1000   -29.7000   -27.3000   -28.1000   -21.9000   -25.8000   -25.8000   -21.1000   -12.5000   -10.2000    -5.5000    -2.3000    -5.5000    -5.5000     1.6000    14.1000    21.1000    25.0000    23.4000    28.1000    32.8000    50.8000    51.6000    54.7000    57.8000    60.2000    65.6000    71.9000    83.6000    82.8000    86.7000    83.6000    89.8000    97.7000   107.0000   112.5000   112.5000   112.5000   111.7000   116.4000   121.9000   128.1000   127.3000   131.3000   129.7000   125.0000   133.6000   132.0000   130.5000   132.0000   131.3000   122.7000   120.3000   121.9000   122.7000   117.2000   119.5000   118.8000   117.2000   124.2000   135.9000   139.8000   144.5000   147.7000   146.9000   153.9000   164.1000   175.8000   196.9000   217.2000   244.5000   285.2000   335.2000   404.7000   496.9000   598.4000   707.0000   810.2000   893.8000   933.6000   943.8000   932.8000   902.3000   860.2000   824.2000   799.2000   780.5000   775.8000   774.2000   782.8000   798.4000   827.3000   858.6000   894.5000   910.2000   885.9000   800.8000   638.3000   458.6000   333.6000   289.8000   273.4000   268.8000   269.5000   275.8000   287.5000   300.8000   314.8000   339.1000   360.9000   383.6000   425.8000   485.2000   593.0000   771.1000  1015.6000  1195.3000  1262.5000  1243.8000  1186.7000  1117.2000  1025.8000   920.3000   831.3000   780.5000   740.6000   720.3000   710.2000   698.4000   689.1000   687.5000   678.9000   675.8000   675.0000   670.3000   657.8000   648.4000   636.7000   627.3000   626.6000   624.2000   612.5000   597.7000   587.5000   578.9000   566.4000   559.4000   545.3000   528.1000   510.9000   503.1000   486.7000   478.1000   468.8000   452.3000   440.6000   425.8000   414.8000   403.9000   403.9000   389.8000   375.0000   364.1000   356.3000   344.5000   342.2000   336.7000   323.4000   313.3000   305.5000   299.2000   292.2000   291.4000   284.4000   278.9000   271.9000   264.8000   264.1000   258.6000   258.6000   252.3000   250.8000   246.9000   242.2000   239.1000   243.8000   242.2000   239.8000   231.3000   229.7000   230.5000   228.9000   233.6000   229.7000   224.2000   219.5000   218.0000   215.6000   221.9000   218.0000   212.5000   209.4000   207.8000   210.9000   212.5000   212.5000   210.9000   207.0000   204.7000   206.3000   210.9000   211.7000   210.9000   207.8000   210.2000   210.9000   207.8000   210.2000   208.6000   209.4000   209.4000   203.9000   207.8000   206.3000   210.9000   214.1000   213.3000   212.5000   208.6000   210.2000   214.8000   218.0000   215.6000   214.1000   210.2000   210.9000   211.7000   219.5000   221.9000   221.1000   219.5000   214.1000   215.6000   218.0000   217.2000   221.9000   223.4000   214.8000   211.7000   215.6000   217.2000   218.0000   210.9000   207.8000   203.1000   201.6000   202.3000   200.8000   193.8000   189.8000   186.7000   185.2000   182.8000   178.9000   175.8000   175.0000   172.7000   170.3000   164.1000   163.3000   164.1000   168.0000   170.3000   174.2000   169.5000   171.1000   173.4000   173.4000   174.2000   178.1000   180.5000   182.8000   191.4000   197.7000   202.3000   203.1000   202.3000   201.6000   206.3000   212.5000   221.9000   228.1000   234.4000   229.7000   232.0000   243.0000   250.0000   257.0000   255.5000   248.4000   232.8000   218.8000   206.3000   193.8000   193.8000   201.6000   202.3000   207.0000   213.3000   224.2000   232.8000   245.3000   256.3000   258.6000   268.8000   271.9000   275.8000   281.3000   273.4000   259.4000   240.6000   218.8000   193.8000   170.3000   152.3000   143.8000   140.6000   147.7000   152.3000   155.5000   148.4000   126.6000    87.5000    50.0000    18.0000    -7.8000   -30.5000   -46.9000   -60.2000   -61.7000   -61.7000   -57.0000   -55.5000   -44.5000   -43.0000   -49.2000   -44.5000   -36.7000   -23.4000    -7.8000    -3.9000     0.0000     3.1000    14.8000    28.1000    39.1000    41.4000    37.5000    28.9000    29.7000    33.6000    44.5000    57.0000    75.8000    93.8000   110.9000   130.5000   149.2000   170.3000   191.4000   206.3000   218.0000   238.3000   253.9000   275.0000   292.2000   310.2000   326.6000   341.4000   363.3000   378.9000   403.9000   423.4000   433.6000   428.1000   422.7000   417.2000   414.1000   419.5000   419.5000   424.2000   428.9000   440.6000   443.0000   442.2000   439.8000   432.0000   415.6000   407.8000   402.3000   402.3000   399.2000   398.4000   395.3000   393.0000   395.3000   399.2000   410.2000   429.7000   452.3000   481.3000   510.2000   537.5000   548.4000   553.9000   541.4000   523.4000   500.8000   472.7000   421.9000   354.7000   281.3000   207.0000   157.8000   150.0000   174.2000   224.2000   294.5000   372.7000   442.2000   486.7000   475.0000   407.8000   328.9000   269.5000   224.2000   193.8000   175.8000   162.5000   135.2000   101.6000    53.1000     6.3000   -25.0000   -32.0000   -25.0000    11.7000    64.8000   113.3000   176.6000   261.7000   376.6000   506.3000   617.2000   671.1000   689.8000   671.9000   627.3000   582.0000   556.3000   557.8000   589.1000   645.3000   715.6000   787.5000   845.3000   882.0000   895.3000   876.6000   853.1000   835.2000   824.2000   827.3000   847.7000   880.5000   935.2000  1010.9000  1094.5000  1170.3000  1202.3000  1145.3000   975.8000   722.7000   473.4000   320.3000   279.7000   297.7000   328.1000   363.3000   380.5000   364.1000   320.3000   280.5000   240.6000   197.7000   160.9000   135.2000   103.9000    90.6000    81.3000    70.3000    50.0000    11.7000   -45.3000  -108.6000  -164.8000  -222.7000  -270.3000  -300.8000  -320.3000  -342.2000  -358.6000  -369.5000  -363.3000  -346.1000  -322.7000  -293.0000  -241.4000  -175.0000  -102.3000   -25.8000    48.4000   107.0000   160.9000   220.3000   275.0000   330.5000   382.8000   432.8000   470.3000   518.8000   571.1000   623.4000   673.4000   713.3000   743.8000   756.3000   766.4000   764.8000   760.2000   750.0000   742.2000   724.2000   707.8000   687.5000   668.8000   643.0000   618.8000   589.8000   559.4000   531.3000   501.6000   480.5000   461.7000   433.6000   401.6000   371.1000   340.6000   317.2000   304.7000   285.9000   257.8000   228.9000   204.7000   185.9000   171.9000   147.7000   122.7000    90.6000    62.5000    35.2000     6.3000   -18.0000   -52.3000   -85.2000  -119.5000  -155.5000  -186.7000  -215.6000  -248.4000  -274.2000  -307.8000  -341.4000  -371.1000  -403.1000  -429.7000  -457.0000  -499.2000  -550.0000  -605.5000  -656.3000  -706.3000  -755.5000  -799.2000  -838.3000  -867.2000  -902.3000  -932.8000  -960.2000  -979.7000  -989.1000 -1010.9000 -1028.1000 -1029.7000 -1024.2000 -1010.9000  -992.2000  -976.6000  -970.3000  -956.3000  -940.6000  -915.6000  -889.1000  -864.8000  -844.5000  -840.6000  -852.3000  -867.2000  -881.3000  -898.4000  -917.2000  -938.3000  -942.2000  -937.5000  -928.9000  -921.9000  -917.2000  -914.8000  -911.7000  -912.5000  -921.9000  -931.3000  -953.1000  -983.6000 -1000.8000 -1003.9000  -991.4000  -969.5000  -957.8000  -939.8000  -919.5000  -893.8000  -870.3000  -837.5000  -803.1000  -774.2000  -752.3000  -726.6000  -692.2000  -668.0000  -639.1000  -622.7000  -596.1000  -575.0000  -551.6000  -530.5000  -504.7000  -482.0000  -466.4000  -454.7000  -449.2000  -437.5000  -425.0000  -411.7000  -405.5000  -403.9000  -408.6000  -407.0000  -407.0000  -412.5000  -414.1000  -423.4000  -443.8000  -468.0000  -478.9000  -496.9000  -513.3000  -525.8000  -543.8000  -566.4000  -577.3000  -579.7000  -578.9000  -572.7000  -560.9000  -544.5000  -532.8000  -512.5000  -496.1000  -478.9000  -465.6000  -454.7000  -451.6000  -452.3000  -458.6000  -469.5000  -480.5000  -495.3000  -507.8000  -523.4000  -535.9000  -548.4000  -562.5000  -579.7000  -596.1000  -607.0000  -617.2000  -624.2000  -625.0000  -619.5000  -608.6000  -605.5000  -598.4000  -592.2000  -580.5000  -574.2000  -566.4000  -559.4000  -553.9000  -548.4000  -543.0000  -533.6000  -525.8000  -524.2000  -520.3000  -520.3000  -514.8000  -504.7000  -495.3000  -496.1000  -499.2000  -503.1000  -504.7000  -504.7000  -500.0000  -501.6000  -507.0000  -510.2000  -512.5000  -518.8000  -521.9000  -519.5000  -522.7000  -525.8000  -524.2000  -525.8000  -525.0000  -523.4000  -525.0000  -529.7000  -535.9000  -540.6000  -546.1000  -546.1000  -543.0000  -544.5000  -549.2000  -550.8000  -550.8000  -546.9000  -540.6000  -541.4000  -543.0000  -541.4000  -541.4000  -543.0000  -532.8000  -525.8000  -521.9000  -518.0000  -514.1000  -507.8000  -502.3000  -498.4000  -498.4000  -496.1000  -493.8000  -499.2000  -500.8000  -497.7000  -499.2000  -502.3000  -507.8000  -511.7000  -518.0000  -525.8000  -524.2000  -525.0000  -525.0000  -527.3000  -528.9000  -532.0000  -532.0000  -522.7000  -523.4000  -522.7000  -519.5000  -519.5000  -514.8000  -511.7000  -507.0000  -500.0000  -500.8000  -500.0000  -496.1000  -483.6000  -478.9000  -475.8000  -473.4000  -471.9000  -464.1000  -453.9000  -446.1000  -438.3000  -432.8000  -432.0000  -427.3000  -424.2000  -414.8000  -404.7000  -403.1000  -396.1000  -393.8000  -384.4000  -377.3000  -361.7000  -357.8000  -355.5000  -353.1000  -347.7000  -346.9000  -340.6000  -330.5000  -327.3000  -325.0000  -328.9000  -323.4000  -314.1000  -300.0000  -293.0000  -285.2000  -276.6000  -269.5000  -257.8000  -247.7000  -230.5000  -225.8000  -210.9000  -200.8000  -186.7000  -168.8000  -146.9000  -129.7000  -118.8000  -104.7000   -87.5000   -66.4000   -45.3000   -16.4000    -1.6000    20.3000    34.4000    57.0000    80.5000    98.4000   110.2000   123.4000   125.0000   125.0000   134.4000   146.1000   154.7000   158.6000   162.5000   155.5000   156.3000   164.8000   175.8000   181.3000   187.5000   194.5000   201.6000   214.1000   226.6000   236.7000   239.8000   244.5000   246.1000   245.3000   243.8000   240.6000   235.9000   243.8000   239.8000   235.9000   241.4000   239.8000   241.4000   244.5000   247.7000   239.1000   236.7000   238.3000   243.0000   241.4000   233.6000   223.4000   216.4000   214.1000   210.2000   214.1000   210.2000   210.2000   195.3000   185.2000   183.6000   184.4000   185.2000   181.3000   181.3000   180.5000   176.6000   174.2000   172.7000   182.8000   185.9000   186.7000   187.5000   192.2000   199.2000   210.9000   214.1000   218.0000   215.6000   218.0000   215.6000   224.2000   228.9000   229.7000   228.9000   225.0000   225.8000   230.5000   225.8000   221.1000   213.3000   208.6000   209.4000   209.4000   210.2000   210.9000   203.9000   190.6000   182.8000   182.8000   178.1000   179.7000   183.6000   184.4000   182.8000   190.6000   203.1000   219.5000   237.5000   250.0000   256.3000   254.7000   267.2000   280.5000   303.9000   324.2000   333.6000   345.3000   359.4000   382.0000   405.5000   438.3000   454.7000   468.8000   485.9000   509.4000   532.8000   557.0000   578.1000   602.3000   621.1000   639.1000   664.8000   690.6000   715.6000   732.0000   750.0000   765.6000   778.9000   800.0000   815.6000   835.2000   839.1000   844.5000   846.1000   845.3000   847.7000   859.4000   853.9000   846.9000   839.1000   835.2000   832.8000   829.7000   821.1000   798.4000   773.4000   751.6000   727.3000   710.9000   703.1000   685.2000   669.5000   652.3000   635.2000   614.1000   598.4000   583.6000   571.1000   557.0000   528.9000   500.0000   471.1000   447.7000   424.2000   394.5000   379.7000   364.8000   346.1000   350.8000   376.6000   420.3000   473.4000   493.8000   482.0000   418.8000   292.2000   100.8000  -114.8000  -306.3000  -428.9000  -471.1000  -468.8000  -453.1000  -440.6000  -423.4000  -413.3000  -391.4000  -368.8000  -343.8000  -320.3000  -295.3000  -267.2000  -234.4000  -196.1000  -160.9000  -127.3000  -101.6000   -73.4000   -39.1000   -16.4000    12.5000    44.5000    75.8000   109.4000   145.3000   173.4000   202.3000   226.6000   239.8000   249.2000   258.6000   267.2000   266.4000   274.2000   283.6000   286.7000   290.6000   285.9000   275.0000   251.6000   222.7000   199.2000   164.8000   133.6000    97.7000    66.4000    35.2000     7.8000   -15.6000   -46.9000   -77.3000  -110.2000  -135.2000  -151.6000  -174.2000  -192.2000  -207.8000  -224.2000  -232.0000  -232.0000  -226.6000  -215.6000  -207.0000  -193.0000  -180.5000  -160.9000  -141.4000  -127.3000  -114.1000  -110.2000  -110.9000  -112.5000  -115.6000  -116.4000  -123.4000  -135.2000  -144.5000  -160.2000  -168.8000  -182.8000  -190.6000  -201.6000  -213.3000  -232.0000  -248.4000  -259.4000  -267.2000  -278.9000  -293.8000  -304.7000  -320.3000  -330.5000  -337.5000  -344.5000  -349.2000  -358.6000  -371.1000  -378.1000  -381.3000  -384.4000  -382.8000  -389.1000  -396.9000  -410.9000  -408.6000  -404.7000  -405.5000  -407.0000  -410.9000  -412.5000  -411.7000  -411.7000  -406.3000  -400.0000  -394.5000  -394.5000  -398.4000  -392.2000  -384.4000  -376.6000  -371.9000  -368.8000  -368.8000  -365.6000  -359.4000  -349.2000  -344.5000  -336.7000  -328.9000  -330.5000  -325.0000  -318.8000  -305.5000  -296.9000  -292.2000  -292.2000  -289.8000  -282.8000  -278.9000  -275.0000  -265.6000  -261.7000  -265.6000  -257.8000  -250.8000  -243.8000  -236.7000  -230.5000  -229.7000  -226.6000  -214.8000  -208.6000  -203.1000  -196.1000  -193.8000  -190.6000  -190.6000  -185.2000  -179.7000  -176.6000  -176.6000  -178.1000  -176.6000  -180.5000  -182.0000  -178.9000  -175.0000  -173.4000  -174.2000  -174.2000  -173.4000  -171.1000  -171.9000  -174.2000  -175.0000  -171.9000  -178.9000  -176.6000  -175.8000  -168.8000  -168.0000  -172.7000  -168.8000  -167.2000  -164.1000  -164.1000  -163.3000  -164.8000  -159.4000  -160.9000  -162.5000  -157.0000  -156.3000  -153.1000  -157.0000  -156.3000  -153.1000  -150.0000  -150.8000  -148.4000  -145.3000  -143.8000  -139.8000  -140.6000  -131.3000  -128.9000  -137.5000  -141.4000  -135.9000  -126.6000  -119.5000  -119.5000  -118.0000  -121.1000  -124.2000  -116.4000  -105.5000  -103.9000  -105.5000  -111.7000  -118.8000  -121.9000  -120.3000  -116.4000  -109.4000  -104.7000  -107.8000  -113.3000  -142.2000  -194.5000  -262.5000  -314.8000  -353.1000  -390.6000  -410.9000  -426.6000  -436.7000  -448.4000  -468.0000  -485.2000  -493.0000  -496.1000  -496.1000  -482.8000  -458.6000  -428.9000  -389.1000  -336.7000  -260.2000  -164.8000   -86.7000   -46.9000   -41.4000   -26.6000     2.3000    40.6000    67.2000    80.5000    64.8000    28.1000   -35.9000  -118.8000  -210.2000  -296.9000  -352.3000  -367.2000  -325.0000  -253.9000  -169.5000   -82.8000   -13.3000    44.5000   103.1000   164.8000   229.7000   300.0000   373.4000   447.7000   519.5000   609.4000   703.1000   793.8000   876.6000   956.3000  1024.2000  1079.7000  1132.0000  1184.4000  1228.9000  1269.5000  1303.9000  1322.7000  1351.6000  1376.6000  1403.9000  1428.9000  1448.4000  1462.5000  1478.9000  1497.7000  1502.3000  1503.1000  1498.4000  1483.6000  1464.8000  1441.4000  1421.9000  1407.0000  1396.9000  1379.7000  1363.3000  1346.1000  1335.9000  1323.4000  1314.1000  1296.1000  1268.0000  1235.9000  1210.2000  1182.0000  1150.8000  1125.0000  1103.1000  1086.7000  1076.6000  1075.8000  1074.2000  1077.3000  1079.7000  1074.2000  1060.2000  1053.9000  1047.7000  1049.2000  1040.6000  1025.0000  1003.9000   995.3000   981.3000   968.0000   968.8000   973.4000   979.7000   989.8000  1005.5000  1009.4000  1010.9000   997.7000   960.2000   902.3000   831.3000   753.9000   663.3000   571.9000   478.9000   396.1000   334.4000   287.5000   257.8000   243.0000   233.6000   220.3000   206.3000   181.3000   151.6000   110.9000    89.1000    82.8000    93.8000   107.0000    89.8000    30.5000   -60.2000  -168.0000  -289.1000  -416.4000  -519.5000  -578.9000  -613.3000  -610.9000  -584.4000  -547.7000  -510.2000  -466.4000  -414.1000  -364.1000  -318.8000  -288.3000  -257.8000  -228.1000  -189.1000  -121.9000   -35.9000    28.9000    54.7000    53.1000    37.5000    27.3000    28.1000    26.6000    21.1000    22.7000    25.8000    31.3000    40.6000    58.6000    72.7000    82.8000    96.1000   101.6000   120.3000   139.1000   159.4000   171.9000   182.0000   188.3000   189.8000   188.3000   192.2000   196.9000   196.1000   193.8000   186.7000   194.5000   196.9000   197.7000   196.9000   196.1000   193.8000   189.1000   182.8000   187.5000   189.1000   193.8000   192.2000   189.1000   190.6000   195.3000   207.8000   208.6000   211.7000   218.8000   230.5000   247.7000   256.3000   267.2000   277.3000   291.4000   312.5000   332.8000   369.5000   397.7000   432.0000   472.7000   507.0000   544.5000   575.8000   610.9000   639.1000   664.1000   685.2000   701.6000   717.2000   736.7000   751.6000   757.0000   762.5000   753.9000   747.7000   737.5000   725.8000   707.0000   678.9000   655.5000   621.9000   592.2000   564.1000   532.0000   497.7000   462.5000   421.9000   376.6000   332.8000   283.6000   233.6000   181.3000   127.3000    75.8000    19.5000   -38.3000   -95.3000  -155.5000  -222.7000  -292.2000  -360.2000  -424.2000  -487.5000  -550.8000  -614.8000  -670.3000  -728.9000  -785.9000  -831.3000  -884.4000  -935.2000  -979.7000 -1022.7000 -1060.9000 -1088.3000 -1110.9000 -1140.6000 -1169.5000 -1198.4000 -1225.0000 -1246.9000 -1259.4000 -1273.4000 -1291.4000 -1304.7000 -1319.5000 -1326.6000 -1332.0000 -1334.4000 -1343.8000 -1350.8000 -1355.5000 -1362.5000 -1366.4000 -1368.8000 -1365.6000 -1360.9000 -1364.8000 -1377.3000 -1378.9000 -1380.5000 -1377.3000 -1378.9000 -1377.3000 -1378.9000 -1385.9000 -1378.9000 -1364.8000 -1353.9000 -1346.9000 -1343.0000 -1343.8000 -1344.5000 -1334.4000 -1325.0000 -1322.7000 -1314.8000 -1302.3000 -1293.0000 -1291.4000 -1282.0000 -1271.1000 -1257.8000 -1239.8000 -1220.3000 -1205.5000 -1187.5000 -1171.9000 -1157.8000 -1146.1000 -1132.8000 -1120.3000 -1103.9000 -1089.1000 -1070.3000 -1056.3000 -1045.3000 -1034.4000 -1024.2000 -1010.9000  -993.0000  -977.3000  -960.9000  -953.9000  -943.8000  -928.9000  -910.9000  -889.8000  -874.2000  -860.9000  -852.3000  -837.5000  -821.1000  -807.0000  -799.2000  -785.2000  -774.2000  -765.6000  -743.8000  -729.7000  -709.4000  -693.0000  -681.3000  -677.3000  -667.2000  -650.0000  -630.5000  -623.4000  -614.8000  -610.9000  -602.3000  -588.3000  -569.5000  -553.1000  -537.5000  -515.6000  -503.9000  -485.9000  -461.7000  -444.5000  -427.3000  -415.6000  -410.9000  -431.3000  -449.2000  -471.1000  -487.5000  -503.1000  -515.6000  -528.9000  -532.0000  -534.4000  -544.5000  -560.2000  -576.6000  -592.2000  -595.3000  -599.2000  -607.0000  -628.1000  -652.3000  -689.8000  -725.0000  -751.6000  -763.3000  -760.2000  -743.0000  -716.4000  -691.4000  -663.3000  -621.9000  -571.9000  -510.9000  -452.3000  -391.4000  -339.1000  -279.7000  -219.5000  -162.5000  -105.5000   -49.2000    -1.6000    37.5000    93.0000   139.1000   188.3000   231.3000   271.9000   310.9000   350.8000   396.1000   437.5000   484.4000   524.2000   561.7000   592.2000   622.7000   652.3000   679.7000   696.1000   713.3000   724.2000   731.3000   749.2000   768.8000   786.7000   808.6000   836.7000   860.9000   891.4000   934.4000   993.0000  1064.8000  1139.1000  1208.6000  1253.9000  1271.9000  1251.6000  1197.7000  1127.3000  1056.3000   983.6000   924.2000   873.4000   837.5000   809.4000   778.9000   757.8000   746.1000   735.9000   717.2000   674.2000   567.2000   395.3000   248.4000   185.9000   177.3000   204.7000   237.5000   260.2000   278.9000   296.9000   317.2000   331.3000   345.3000   367.2000   401.6000   448.4000   537.5000   702.3000   946.1000  1156.3000  1243.8000  1237.5000  1193.8000  1146.9000  1097.7000  1053.1000  1006.3000   977.3000   964.1000   959.4000   961.7000   966.4000   968.8000   962.5000   962.5000   964.1000   961.7000   962.5000   964.8000   955.5000   943.8000   921.9000   906.3000   885.2000   868.8000   852.3000   825.0000   793.8000   761.7000   727.3000   698.4000   666.4000   639.1000   598.4000   560.9000   525.8000   483.6000   451.6000   417.2000   383.6000   347.7000   310.9000   279.7000   249.2000   225.8000   192.2000   159.4000   123.4000    92.2000    66.4000    41.4000    17.2000   -10.2000   -37.5000   -72.7000  -101.6000  -131.3000  -156.3000  -196.9000  -232.0000  -264.8000  -294.5000  -323.4000  -350.8000  -364.1000  -371.9000  -382.8000  -400.0000  -412.5000  -418.0000  -420.3000  -432.0000  -456.3000  -496.9000  -533.6000  -563.3000  -585.9000  -600.0000  -615.6000  -635.9000  -675.0000  -709.4000  -730.5000  -729.7000  -721.1000  -698.4000  -697.7000  -762.5000  -936.7000 -1143.8000 -1272.7000 -1319.5000 -1295.3000 -1228.9000 -1179.7000 -1185.9000 -1210.9000 -1228.1000 -1269.5000 -1393.8000 -1557.8000 -1684.4000 -1746.1000 -1768.0000 -1768.8000 -1764.1000 -1755.5000 -1740.6000 -1723.4000 -1703.1000 -1681.3000 -1647.7000 -1610.2000 -1571.9000 -1534.4000 -1491.4000 -1442.2000 -1399.2000 -1353.9000 -1314.1000 -1269.5000 -1222.7000 -1179.7000 -1136.7000 -1095.3000 -1054.7000 -1014.8000  -977.3000  -930.5000  -882.8000  -852.3000  -814.8000  -784.4000  -750.8000  -718.0000  -688.3000  -665.6000  -640.6000  -617.2000  -596.9000  -577.3000  -555.5000  -531.3000  -507.8000  -485.2000  -471.9000  -460.9000  -441.4000  -423.4000  -400.0000  -375.0000  -353.9000  -320.3000  -266.4000  -217.2000  -190.6000  -164.1000  -151.6000  -140.6000  -129.7000  -117.2000  -108.6000  -105.5000  -105.5000  -102.3000   -91.4000   -86.7000   -80.5000   -77.3000   -79.7000   -75.8000   -78.1000   -82.8000   -71.9000   -60.2000   -46.1000   -30.5000   -23.4000   -14.1000    11.7000    35.9000    61.7000    71.9000    72.7000    61.7000    28.1000   -12.5000   -61.7000  -100.0000  -115.6000   -99.2000   -59.4000    11.7000   104.7000   197.7000   286.7000   352.3000   345.3000   278.9000   200.8000   128.9000    81.3000    36.7000     8.6000    -5.5000   -14.1000   -25.8000   -39.8000   -53.9000   -68.8000   -82.8000   -85.9000   -87.5000   -81.3000   -73.4000   -70.3000   -69.5000   -68.8000   -68.0000   -71.1000   -74.2000   -74.2000   -72.7000   -68.0000   -62.5000   -53.1000   -41.4000   -35.2000   -38.3000   -47.7000   -64.1000   -82.0000   -98.4000  -121.1000  -139.1000  -158.6000  -175.0000  -191.4000  -200.0000  -207.8000  -214.1000  -235.9000  -260.9000  -285.2000  -307.0000  -321.1000  -332.8000  -343.8000  -341.4000  -343.0000  -350.0000  -353.1000  -371.1000  -397.7000  -438.3000  -478.1000  -510.9000  -539.1000  -553.9000  -565.6000  -566.4000  -570.3000  -568.0000  -571.9000  -569.5000  -564.8000  -550.8000  -532.8000  -523.4000  -512.5000  -496.9000  -478.9000  -463.3000  -440.6000  -422.7000  -405.5000  -389.8000  -372.7000  -360.2000  -343.8000  -324.2000  -314.1000  -300.8000  -289.8000  -276.6000  -267.2000  -250.0000  -233.6000  -227.3000  -223.4000  -214.8000  -205.5000  -193.0000  -181.3000  -178.1000  -174.2000  -172.7000  -168.0000  -164.8000  -160.9000  -159.4000  -164.8000  -164.8000  -168.0000  -169.5000  -164.8000  -166.4000  -166.4000  -164.8000  -168.0000  -174.2000  -187.5000  -200.0000  -226.6000  -259.4000  -281.3000  -309.4000  -321.1000  -325.0000  -331.3000  -350.0000  -372.7000  -388.3000  -382.0000  -374.2000  -362.5000  -364.8000  -381.3000  -401.6000  -406.3000  -408.6000  -403.9000  -384.4000  -376.6000  -398.4000  -450.8000  -515.6000  -570.3000  -593.0000  -582.0000  -579.7000  -597.7000  -643.8000  -711.7000  -778.1000  -818.8000  -846.1000  -844.5000  -836.7000  -832.8000  -825.8000  -815.6000  -800.0000  -778.9000  -748.4000  -720.3000  -689.1000  -655.5000  -610.9000  -571.9000  -532.8000  -497.7000  -464.1000  -429.7000  -393.8000  -358.6000  -321.9000  -288.3000  -262.5000  -240.6000  -209.4000  -180.5000  -150.8000  -133.6000  -114.8000  -100.8000   -93.8000   -78.9000   -67.2000   -52.3000   -44.5000   -42.2000   -40.6000   -31.3000   -25.0000   -25.0000   -25.0000   -21.9000   -23.4000   -32.8000   -32.8000   -40.6000   -40.6000   -45.3000   -49.2000   -64.8000   -76.6000   -84.4000   -95.3000  -101.6000  -114.1000  -119.5000  -133.6000  -142.2000  -155.5000  -165.6000  -169.5000  -182.0000  -188.3000  -198.4000  -208.6000  -218.0000  -215.6000  -227.3000  -237.5000  -246.9000  -256.3000  -259.4000  -264.8000  -260.2000  -264.8000  -272.7000  -281.3000  -285.9000  -285.9000  -287.5000  -290.6000  -289.8000  -296.9000  -298.4000  -296.9000  -296.9000  -291.4000  -290.6000  -294.5000  -291.4000  -289.8000  -284.4000  -279.7000  -274.2000  -269.5000  -268.0000  -264.8000  -267.2000  -263.3000  -253.1000  -256.3000  -255.5000  -260.2000  -254.7000  -250.0000  -237.5000  -225.8000  -220.3000  -210.2000  -203.9000  -199.2000  -193.0000  -192.2000  -193.0000  -196.9000  -202.3000  -203.1000  -205.5000  -199.2000  -199.2000  -201.6000  -200.0000  -199.2000  -199.2000  -198.4000  -196.1000  -203.1000  -207.8000  -212.5000  -220.3000  -225.8000  -229.7000  -228.9000  -225.8000  -230.5000  -242.2000  -259.4000  -267.2000  -264.8000  -269.5000  -283.6000  -294.5000  -307.0000  -314.8000  -324.2000  -323.4000  -332.0000  -335.9000  -353.1000  -366.4000  -373.4000  -375.8000  -378.9000  -384.4000  -389.1000  -393.0000  -386.7000  -390.6000  -394.5000  -400.0000  -410.2000  -416.4000  -423.4000  -418.8000  -418.0000  -416.4000  -400.0000  -388.3000  -380.5000  -368.0000  -353.1000  -341.4000  -326.6000  -314.8000  -300.8000  -287.5000  -260.9000  -233.6000  -207.0000  -192.2000  -175.0000  -161.7000  -136.7000  -106.3000   -72.7000   -45.3000   -19.5000     0.8000    32.0000    58.6000    85.2000   111.7000   134.4000   147.7000   157.0000   178.9000   190.6000   194.5000   202.3000   208.6000   206.3000   201.6000   202.3000   203.1000   195.3000   192.2000   182.0000   170.3000   168.8000   173.4000   175.8000   179.7000   191.4000   200.8000   208.6000   236.7000   263.3000   296.9000   329.7000   364.8000   393.8000   429.7000   466.4000   510.2000   557.0000   604.7000   650.0000   691.4000   735.9000   785.2000   840.6000   882.0000   918.0000   959.4000  1007.0000  1057.8000  1112.5000  1172.7000  1228.1000  1280.5000  1320.3000  1360.9000  1393.8000  1423.4000  1449.2000  1464.8000  1476.6000  1489.1000  1497.7000  1511.7000  1532.8000  1539.1000  1539.8000  1520.3000  1479.7000  1433.6000  1388.3000  1361.7000  1334.4000  1314.8000  1295.3000  1273.4000  1241.4000  1213.3000  1170.3000  1128.9000  1090.6000  1060.9000  1039.1000  1020.3000  1000.0000   980.5000   968.0000   953.1000   939.1000   936.7000   916.4000   881.3000   808.6000   714.8000   610.2000   509.4000   428.9000   357.0000   286.7000   228.1000   178.9000   138.3000   103.1000    76.6000    42.2000     0.0000   -46.9000   -87.5000  -112.5000  -118.8000  -114.8000  -109.4000  -120.3000  -143.8000  -167.2000  -185.2000  -190.6000  -177.3000  -149.2000  -106.3000   -48.4000    23.4000   110.2000   203.1000   278.9000   307.0000   298.4000   240.6000   145.3000    21.1000  -111.7000  -226.6000  -302.3000  -335.9000  -337.5000  -298.4000  -256.3000  -214.1000  -185.9000  -164.1000  -142.2000  -119.5000   -98.4000   -78.1000   -53.1000   -24.2000    -3.9000    14.8000    56.3000   102.3000   152.3000   208.6000   258.6000   300.0000   335.2000   373.4000   395.3000   396.9000   385.9000   361.7000   332.0000   309.4000   301.6000   300.8000   305.5000   307.8000   310.9000   317.2000   315.6000   300.0000   282.0000   254.7000   217.2000   174.2000   136.7000   100.8000    68.0000    39.1000    10.2000   -28.1000   -79.7000  -133.6000  -196.1000  -246.1000  -282.0000  -316.4000  -336.7000  -339.1000  -332.0000  -323.4000  -312.5000  -293.8000  -275.8000  -261.7000  -236.7000  -211.7000  -180.5000  -147.7000  -126.6000  -115.6000  -109.4000  -105.5000  -108.6000  -112.5000  -114.8000  -117.2000  -118.0000  -121.9000  -125.8000  -127.3000  -125.8000  -134.4000  -148.4000  -160.9000  -173.4000  -181.3000  -183.6000  -186.7000  -196.1000  -200.0000  -201.6000  -212.5000  -221.9000  -218.8000  -219.5000  -226.6000  -225.8000  -230.5000  -232.0000  -228.9000  -223.4000  -221.9000  -224.2000  -228.1000  -232.0000  -232.8000  -230.5000  -233.6000  -232.8000  -235.9000  -243.0000  -239.8000  -235.2000  -238.3000  -235.9000  -233.6000  -238.3000  -239.1000  -233.6000  -225.0000  -222.7000  -222.7000  -225.8000  -228.1000  -230.5000  -230.5000  -232.8000  -236.7000  -237.5000  -239.1000  -247.7000  -246.9000  -246.1000  -250.0000  -257.0000  -264.8000  -272.7000  -274.2000  -276.6000  -285.2000  -294.5000  -300.0000  -307.0000  -312.5000  -317.2000  -321.9000  -325.0000  -335.9000  -341.4000  -358.6000  -359.4000  -360.2000  -362.5000  -367.2000  -371.1000  -373.4000  -378.1000  -385.9000  -389.1000  -382.0000  -378.9000  -375.0000  -379.7000  -386.7000  -385.2000  -382.8000  -373.4000  -368.0000  -363.3000  -366.4000  -366.4000  -360.9000  -357.0000  -346.1000  -337.5000  -338.3000  -343.0000  -333.6000  -325.0000  -314.1000  -309.4000  -307.0000  -303.9000  -296.1000  -289.8000  -283.6000  -269.5000  -264.8000  -257.8000  -261.7000  -252.3000  -243.8000  -239.8000  -232.8000  -233.6000  -236.7000  -238.3000  -235.2000  -232.0000  -230.5000  -232.8000  -231.3000  -228.1000  -229.7000  -227.3000  -213.3000  -207.8000  -203.1000  -196.9000  -195.3000  -185.2000  -178.1000  -170.3000  -167.2000  -165.6000  -165.6000  -168.0000  -164.1000  -154.7000  -150.0000  -146.9000  -150.0000  -148.4000  -146.9000  -143.8000  -134.4000  -134.4000  -134.4000  -138.3000  -138.3000  -139.8000  -135.2000  -135.9000  -139.1000  -144.5000  -145.3000  -142.2000  -140.6000  -133.6000  -135.2000  -134.4000  -137.5000  -135.2000  -135.2000  -130.5000  -123.4000  -121.9000  -120.3000  -121.1000  -121.1000  -114.8000  -105.5000  -101.6000  -102.3000  -101.6000   -99.2000   -94.5000   -90.6000   -91.4000   -88.3000   -84.4000   -86.7000   -87.5000   -84.4000   -78.1000   -71.9000   -74.2000   -70.3000   -75.0000   -75.8000   -71.1000   -64.1000   -58.6000   -57.0000   -54.7000   -57.0000   -50.8000   -46.9000   -39.8000   -35.9000   -32.0000   -38.3000   -32.8000   -28.9000   -23.4000   -18.8000   -16.4000    -5.5000    -3.1000     2.3000     8.6000     7.8000    14.1000    16.4000    17.2000    18.0000    20.3000    33.6000    48.4000    57.8000    66.4000    71.9000    82.8000    96.1000   107.8000   118.8000   130.5000   140.6000   146.1000   163.3000   178.1000   196.1000   213.3000   226.6000   241.4000   259.4000   278.1000   295.3000   309.4000   328.1000   342.2000   355.5000   378.9000   388.3000   402.3000   407.8000   397.7000   375.8000   360.2000   357.8000   351.6000   344.5000   336.7000   345.3000   363.3000   383.6000   394.5000   384.4000   346.9000   288.3000   221.1000   160.2000   111.7000    68.8000    29.7000   -19.5000   -74.2000  -132.8000  -188.3000  -231.3000  -269.5000  -295.3000  -318.8000  -327.3000  -320.3000  -299.2000  -255.5000  -182.8000  -102.3000   -46.9000    -6.3000    21.9000    53.1000    91.4000   128.1000   140.6000   150.0000   160.9000   178.1000   193.0000   219.5000   250.8000   279.7000   307.0000   334.4000   363.3000   392.2000   426.6000   454.7000   478.9000   497.7000   514.1000   538.3000   562.5000   590.6000   611.7000   640.6000   664.8000   689.8000   710.2000   731.3000   747.7000   761.7000   773.4000   783.6000   793.8000   803.9000   823.4000   832.0000   844.5000   857.0000   859.4000   869.5000   882.0000   889.1000   889.8000   889.1000   874.2000   872.7000   875.0000   882.8000   896.1000   916.4000   932.8000   953.9000   974.2000   990.6000  1002.3000  1002.3000  1000.0000   993.8000   987.5000   984.4000   981.3000   978.1000   976.6000   985.2000   993.0000  1021.1000  1072.7000  1119.5000  1175.0000  1228.1000  1264.1000  1275.8000  1259.4000  1225.0000  1186.7000  1147.7000  1100.0000  1032.0000   943.0000   840.6000   738.3000   641.4000   555.5000   497.7000   463.3000   439.8000   402.3000   346.1000   296.1000   244.5000   192.2000   128.1000    72.7000    21.9000   -30.5000   -85.9000  -157.0000  -244.5000  -325.0000  -403.9000  -479.7000  -520.3000  -537.5000  -517.2000  -456.3000  -370.3000  -280.5000  -195.3000  -121.9000   -64.1000   -10.9000    42.2000    95.3000   117.2000    93.0000    48.4000    13.3000     2.3000    21.1000    53.1000    71.1000    77.3000    78.1000    75.8000    71.9000    36.7000   -39.1000  -132.0000  -189.8000  -221.9000  -227.3000  -220.3000  -203.1000  -187.5000  -185.2000  -171.9000  -145.3000  -126.6000  -103.1000   -79.7000   -48.4000   -19.5000     9.4000    35.2000    50.0000    77.3000   102.3000   142.2000   170.3000   203.9000   234.4000   271.1000   314.8000   369.5000   431.3000   496.9000   575.8000   660.9000   751.6000   848.4000   928.1000   968.8000   982.0000   967.2000   939.1000   908.6000   883.6000   861.7000   842.2000   843.0000   845.3000   856.3000   876.6000   900.0000   910.9000   901.6000   835.9000   694.5000   518.0000   368.8000   287.5000   239.8000   209.4000   177.3000   160.9000   150.8000   146.1000   137.5000   125.0000   112.5000    96.1000    82.0000    64.8000    50.0000    46.9000    38.3000    21.9000    10.9000     0.0000   -12.5000   -27.3000   -50.0000   -79.7000  -117.2000  -161.7000  -185.2000  -200.0000  -200.0000  -194.5000  -185.9000  -171.1000  -149.2000  -123.4000   -85.2000   -35.9000    28.1000   131.3000   302.3000   502.3000   646.9000   719.5000   732.8000   715.6000   686.7000   655.5000   621.9000   597.7000   575.8000   548.4000   521.1000   496.1000   469.5000   446.9000   431.3000   403.1000   376.6000   346.1000   325.0000   300.0000   280.5000   269.5000   252.3000   233.6000   218.0000   210.2000   202.3000   197.7000   193.8000   191.4000   190.6000   202.3000   211.7000   226.6000   243.8000   250.0000   253.9000   256.3000   261.7000   267.2000   279.7000   285.9000   287.5000   290.6000   294.5000   303.9000   312.5000   318.8000   321.9000   327.3000   328.9000   328.9000   324.2000   323.4000   323.4000   321.9000   325.0000   322.7000   316.4000   306.3000   307.0000   307.8000   301.6000   295.3000   278.1000   266.4000   257.8000   243.0000   225.8000   214.8000   196.1000   176.6000   170.3000   164.8000   151.6000   127.3000   103.1000    76.6000    60.2000    55.5000    64.1000    70.3000    76.6000    80.5000    76.6000    71.1000    61.7000    50.8000    38.3000    22.7000     5.5000    -7.8000   -11.7000   -14.1000   -19.5000   -22.7000   -18.0000   -16.4000    -2.3000    14.1000    40.6000    68.0000    97.7000   125.8000   150.8000   189.8000   230.5000   271.1000   314.1000   350.0000   375.0000   405.5000   442.2000   481.3000   528.9000   564.8000   591.4000   617.2000   641.4000   656.3000   677.3000   694.5000   696.9000   693.8000   685.9000   689.1000   689.1000   689.8000   690.6000   684.4000   677.3000   667.2000   653.1000   634.4000   621.1000   596.9000   576.6000   560.2000   546.9000   534.4000   524.2000   515.6000   509.4000   498.4000   481.3000   471.1000   461.7000   462.5000   459.4000   463.3000   472.7000   487.5000   508.6000   545.3000   581.3000   606.3000   624.2000   634.4000   643.8000   653.1000   675.8000   691.4000   705.5000   716.4000   699.2000   675.8000   643.0000   610.2000   575.8000   548.4000   521.9000   498.4000   478.9000   478.9000   487.5000   494.5000   489.1000   452.3000   409.4000   354.7000   307.8000   263.3000   220.3000   177.3000   133.6000    98.4000    51.6000    14.8000   -18.0000   -53.1000   -87.5000  -133.6000  -183.6000  -232.8000  -273.4000  -308.6000  -323.4000  -340.6000  -349.2000  -360.2000  -367.2000  -362.5000  -353.1000  -344.5000  -324.2000  -257.0000  -166.4000   -82.8000   -30.5000    -2.3000    13.3000    30.5000    38.3000    51.6000    64.8000    80.5000    96.9000   113.3000   140.6000   153.9000   150.0000   132.0000   116.4000    93.0000    74.2000    54.7000    30.5000     6.3000   -23.4000   -58.6000   -78.9000   -69.5000   -28.1000    53.9000   160.2000   302.3000   451.6000   591.4000   715.6000   790.6000   808.6000   748.4000   621.1000   451.6000   290.6000   164.1000    82.8000    60.2000    77.3000   120.3000   171.9000   232.0000   291.4000   340.6000   364.8000   375.0000   382.0000   400.0000   420.3000   446.1000   489.8000   532.0000   582.8000   631.3000   692.2000   753.9000   823.4000   880.5000   926.6000   964.1000   996.9000  1032.0000  1069.5000  1103.9000  1121.1000  1128.1000  1114.1000  1100.0000  1090.6000  1091.4000  1097.7000  1109.4000  1124.2000  1138.3000  1157.0000  1156.3000  1139.8000  1100.8000  1056.3000  1003.1000   950.0000   903.1000   863.3000   828.9000   796.1000   772.7000   755.5000   739.8000   727.3000   723.4000   720.3000   708.6000   699.2000   687.5000   678.9000   680.5000   690.6000   694.5000   704.7000   719.5000   731.3000   739.8000   753.1000   764.8000   761.7000   759.4000   750.0000   735.9000   727.3000   720.3000   713.3000   691.4000   663.3000   632.8000   612.5000   584.4000   553.1000   527.3000   503.9000   471.1000   441.4000   418.8000   393.8000   368.8000   335.2000   302.3000   270.3000   241.4000   211.7000   179.7000   150.0000   115.6000    76.6000    35.2000     6.3000   -22.7000   -59.4000   -89.8000  -117.2000  -150.8000  -183.6000  -204.7000  -228.1000  -242.2000  -263.3000  -283.6000  -306.3000  -319.5000  -322.7000  -332.0000  -329.7000  -328.1000  -322.7000  -310.9000  -294.5000  -282.8000  -264.8000  -247.7000  -244.5000  -246.9000  -249.2000  -261.7000  -273.4000  -293.0000  -312.5000  -343.0000  -385.9000  -428.1000  -474.2000  -503.9000  -539.8000  -588.3000  -643.8000  -700.8000  -764.8000  -833.6000  -896.1000  -932.8000  -955.5000  -979.7000  -993.0000  -993.8000  -976.6000  -956.3000  -945.3000  -932.8000  -932.0000  -929.7000  -928.9000  -920.3000  -910.2000  -922.7000  -943.0000  -965.6000  -992.2000 -1018.0000 -1029.7000 -1043.0000 -1046.1000 -1042.2000 -1026.6000 -1009.4000  -991.4000  -976.6000  -956.3000  -937.5000  -919.5000  -887.5000  -843.0000  -789.1000  -745.3000  -703.1000  -664.1000  -630.5000  -589.8000  -548.4000  -514.8000  -489.8000  -471.1000  -468.8000  -468.8000  -464.8000  -435.2000  -396.9000  -349.2000  -283.6000  -202.3000  -112.5000   -32.0000    35.9000    82.0000    87.5000    46.1000   -18.8000   -97.7000  -178.9000  -253.9000  -318.0000  -375.0000  -425.8000  -460.2000  -486.7000  -508.6000  -522.7000  -528.1000  -532.0000  -523.4000  -493.0000  -464.8000  -445.3000  -446.9000  -460.9000  -490.6000  -511.7000  -534.4000  -560.9000  -595.3000  -628.1000  -662.5000  -696.9000  -718.8000  -736.7000  -754.7000  -777.3000  -803.9000  -839.8000  -871.9000  -898.4000  -920.3000  -938.3000  -957.0000  -982.0000 -1006.3000 -1015.6000 -1028.1000 -1036.7000 -1040.6000 -1051.6000 -1062.5000 -1061.7000 -1066.4000 -1071.1000 -1071.9000 -1078.1000 -1084.4000 -1092.2000 -1095.3000 -1099.2000 -1100.0000 -1103.9000 -1107.0000 -1114.1000 -1116.4000 -1114.1000 -1111.7000 -1108.6000 -1103.9000 -1101.6000 -1103.9000 -1100.8000 -1096.1000 -1089.1000 -1080.5000 -1078.9000 -1075.8000 -1064.8000 -1066.4000 -1060.9000 -1051.6000 -1034.4000 -1028.9000 -1026.6000 -1023.4000 -1014.8000  -999.2000  -988.3000  -986.7000  -982.8000  -977.3000  -966.4000  -960.9000  -949.2000  -936.7000  -922.7000  -914.1000  -912.5000  -899.2000  -882.8000  -856.3000  -847.7000  -839.8000  -832.0000  -820.3000  -810.9000  -790.6000  -771.1000  -753.1000  -743.0000  -735.9000  -720.3000  -707.8000  -682.0000  -668.8000  -657.8000  -643.8000  -631.3000  -622.7000  -610.9000  -593.0000  -585.2000  -575.8000  -571.1000  -560.2000  -549.2000  -538.3000  -534.4000  -532.8000  -528.1000  -521.9000  -518.0000  -513.3000  -502.3000  -497.7000  -498.4000  -500.8000  -494.5000  -485.2000  -482.0000  -485.9000  -485.2000  -489.8000  -485.2000  -485.2000  -478.9000  -474.2000  -472.7000  -473.4000  -472.7000  -471.9000  -467.2000  -460.2000  -456.3000  -456.3000  -457.0000  -460.2000  -463.3000  -464.8000  -466.4000  -469.5000  -474.2000  -477.3000  -484.4000  -487.5000  -474.2000  -475.8000  -478.1000  -477.3000  -482.0000  -479.7000  -477.3000  -480.5000  -478.1000  -469.5000  -476.6000  -478.1000  -472.7000  -460.9000  -460.9000  -459.4000  -457.0000  -458.6000  -454.7000  -451.6000  -443.0000  -443.8000  -439.8000  -441.4000  -443.8000  -445.3000  -444.5000  -444.5000  -446.9000  -448.4000  -454.7000  -453.9000  -452.3000  -451.6000  -453.9000  -446.9000  -449.2000  -457.0000  -454.7000  -449.2000  -439.8000  -441.4000  -438.3000  -438.3000  -435.2000  -428.9000  -424.2000  -416.4000  -412.5000  -409.4000  -404.7000  -403.1000  -398.4000  -394.5000  -390.6000  -387.5000  -390.6000  -388.3000  -382.8000  -379.7000  -374.2000  -371.1000  -369.5000  -370.3000  -368.8000  -368.8000  -365.6000  -364.8000  -367.2000  -371.9000  -369.5000  -371.9000  -368.0000  -364.1000  -362.5000  -364.1000  -366.4000  -361.7000  -360.2000  -353.9000  -346.1000  -341.4000  -343.8000  -341.4000  -334.4000  -333.6000  -325.8000  -321.1000  -318.8000  -318.0000  -312.5000  -308.6000  -300.8000  -293.0000  -286.7000  -285.9000  -282.0000  -278.9000  -278.9000  -270.3000  -261.7000  -257.0000  -257.8000  -257.0000  -251.6000  -243.0000  -233.6000  -231.3000  -224.2000  -219.5000  -211.7000  -210.2000  -200.8000  -189.8000  -186.7000  -185.2000  -184.4000  -178.9000  -171.9000  -159.4000  -156.3000  -155.5000  -154.7000  -153.9000  -145.3000  -139.1000  -130.5000  -126.6000  -118.0000  -119.5000  -117.2000  -108.6000   -96.9000   -89.8000   -89.8000   -88.3000   -84.4000   -93.8000   -90.6000   -78.9000   -71.9000   -68.8000   -66.4000   -65.6000   -55.5000   -50.8000   -39.8000   -30.5000   -21.9000   -20.3000   -21.1000   -13.3000    -1.6000     6.3000    16.4000    21.1000    27.3000    36.7000    44.5000    55.5000    63.3000    73.4000    76.6000    79.7000    89.1000    98.4000   100.8000   107.8000   115.6000   114.8000   118.0000   126.6000   131.3000   138.3000   145.3000   146.9000   147.7000   148.4000   148.4000   155.5000   160.9000   159.4000   157.8000   153.9000   157.0000   151.6000   151.6000   150.0000   149.2000   142.2000   135.9000   131.3000   132.0000   132.8000   127.3000   116.4000   114.1000   104.7000    99.2000    93.8000    86.7000    80.5000    74.2000    67.2000    60.9000    56.3000    56.3000    54.7000    58.6000    57.0000    62.5000    71.9000    82.8000    99.2000   107.0000   119.5000   135.9000   148.4000   164.1000   180.5000   191.4000   209.4000   226.6000   239.1000   251.6000   269.5000   289.8000   307.0000   324.2000   335.2000   343.0000   349.2000   353.9000   356.3000   350.0000   341.4000   329.7000   314.8000   305.5000   295.3000   285.2000   270.3000   249.2000   231.3000   213.3000   203.9000   191.4000   175.0000   160.9000   141.4000   118.8000    94.5000    80.5000    68.8000    68.0000    61.7000    46.1000    37.5000    35.2000    30.5000    24.2000    16.4000     3.1000    -7.0000   -21.9000   -24.2000   -30.5000   -21.9000    -7.0000    -2.3000    14.1000    25.0000    35.9000    46.1000    57.8000    78.1000   100.0000   118.8000   132.8000   148.4000   153.9000   160.9000   170.3000   184.4000   204.7000   232.0000   257.8000   279.7000   293.8000   308.6000   325.0000   355.5000   403.1000   461.7000   527.3000   600.0000   683.6000   766.4000   832.0000   875.0000   882.8000   843.0000   775.8000   704.7000   631.3000   568.8000   518.0000   468.8000   432.8000   407.8000   396.9000   385.9000   381.3000   385.9000   379.7000   367.2000   363.3000   355.5000   346.9000   343.0000   343.8000   352.3000   374.2000   408.6000   447.7000   468.0000   467.2000   463.3000   451.6000   435.9000   423.4000   403.9000   384.4000   364.8000   336.7000   307.8000   287.5000   274.2000   258.6000   234.4000   211.7000   193.8000   182.0000   178.9000   174.2000   176.6000   165.6000   143.8000   126.6000   108.6000    95.3000    83.6000    71.9000    66.4000    55.5000    43.8000    32.8000    29.7000    32.0000    21.1000    14.1000    10.9000     4.7000    -0.8000    -1.6000    -1.6000   -10.9000   -17.2000   -21.9000   -35.2000   -41.4000   -43.8000   -56.3000   -63.3000   -75.8000   -82.0000   -89.1000   -93.0000   -94.5000  -106.3000  -118.0000  -126.6000  -143.0000  -155.5000  -163.3000  -172.7000  -187.5000  -196.1000  -207.8000  -218.8000  -228.9000  -230.5000  -235.9000  -239.8000  -245.3000  -255.5000  -257.0000  -254.7000  -258.6000  -267.2000  -270.3000  -281.3000  -288.3000  -285.2000  -287.5000  -288.3000  -288.3000  -291.4000  -296.1000  -293.8000  -288.3000  -282.8000  -286.7000  -285.9000  -286.7000  -285.2000  -284.4000  -282.8000  -279.7000  -278.9000  -275.0000  -283.6000  -278.1000  -278.9000  -275.8000  -275.8000  -272.7000  -273.4000  -277.3000  -276.6000  -270.3000  -268.0000  -263.3000  -261.7000  -267.2000  -264.1000  -262.5000  -253.1000  -249.2000  -249.2000  -250.0000  -250.8000  -248.4000  -247.7000  -242.2000  -234.4000  -234.4000  -234.4000  -235.9000  -226.6000  -225.8000  -217.2000  -217.2000  -217.2000  -218.0000  -210.9000  -214.8000  -208.6000  -203.9000  -202.3000  -202.3000  -206.3000  -200.8000  -200.0000  -194.5000  -190.6000  -191.4000  -196.9000  -193.0000  -191.4000  -189.1000  -182.0000  -180.5000  -182.0000  -185.9000  -185.9000  -183.6000  -179.7000  -175.8000  -175.0000  -175.0000  -178.1000  -178.9000  -176.6000  -171.9000  -167.2000  -176.6000  -178.9000  -178.9000  -176.6000  -168.8000  -174.2000  -174.2000  -175.8000  -177.3000  -175.0000  -173.4000  -169.5000  -168.0000  -164.1000  -167.2000  -167.2000  -162.5000  -157.0000  -154.7000  -157.0000  -154.7000  -157.0000  -151.6000  -145.3000  -139.8000  -139.8000  -136.7000  -138.3000  -139.1000  -140.6000  -137.5000  -131.3000  -128.9000  -126.6000  -127.3000  -124.2000  -125.8000  -114.1000  -116.4000  -117.2000  -118.0000  -117.2000  -116.4000  -110.9000  -104.7000  -107.0000  -107.0000  -110.2000  -107.0000  -103.9000   -98.4000   -96.1000   -94.5000   -88.3000   -89.8000   -90.6000   -88.3000   -87.5000   -86.7000   -81.3000   -81.3000   -82.8000   -79.7000   -75.8000   -72.7000   -71.9000   -71.1000   -82.0000   -78.1000   -71.9000   -65.6000   -68.0000   -63.3000   -68.8000   -69.5000   -68.0000   -60.2000   -56.3000   -54.7000   -53.1000   -52.3000   -50.8000   -46.9000   -50.0000   -49.2000   -43.8000   -43.8000   -51.6000   -46.1000   -45.3000   -39.8000   -35.9000   -38.3000   -41.4000   -40.6000   -35.9000   -30.5000   -30.5000   -26.6000   -27.3000   -32.8000   -35.9000   -27.3000   -14.8000   -16.4000   -20.3000   -24.2000   -26.6000   -19.5000   -14.8000   -13.3000   -12.5000   -17.2000   -18.8000   -18.8000   -14.8000   -10.2000    -7.8000    -7.0000   -15.6000   -21.1000   -16.4000   -13.3000    -4.7000    -7.0000    -7.0000    -6.3000    -8.6000   -11.7000    -9.4000     3.9000    -3.9000    -8.6000    -2.3000    -1.6000     1.6000     0.0000    -1.6000    -5.5000    -1.6000     1.6000     2.3000     5.5000     5.5000     7.8000     0.0000     5.5000    10.9000    12.5000    10.9000    17.2000    14.8000     9.4000    13.3000    18.8000    26.6000    25.0000    25.0000    25.0000    24.2000    26.6000    28.1000    28.1000    28.9000    28.1000    28.1000    29.7000    28.1000    31.3000    35.2000    40.6000    31.3000    28.1000    38.3000    39.1000    39.1000    36.7000    40.6000    38.3000    38.3000    39.8000    40.6000    42.2000    40.6000    39.1000    36.7000    41.4000    46.1000    50.8000    46.1000    46.1000    46.1000    46.9000    46.1000    44.5000    50.8000    49.2000    49.2000    50.0000    46.1000    44.5000    51.6000    53.9000    50.8000    53.1000    47.7000    46.9000    47.7000    55.5000    55.5000    57.0000    49.2000    50.0000    52.3000    51.6000    56.3000    58.6000    56.3000    57.0000    57.8000    58.6000    64.1000    66.4000    61.7000    62.5000    60.2000    60.9000    63.3000    64.8000    62.5000    68.0000    69.5000    65.6000    64.8000    64.1000    69.5000    71.9000    68.8000    63.3000    60.2000    64.1000    64.1000    65.6000    66.4000    64.8000    62.5000    57.8000    57.8000    54.7000    53.1000    53.1000    50.8000    46.1000    49.2000    46.1000    46.1000    44.5000    44.5000    43.8000    34.4000    39.8000    41.4000    47.7000    54.7000    52.3000    49.2000    51.6000    51.6000    57.0000    60.9000    63.3000    61.7000    58.6000    59.4000    55.5000    59.4000    64.1000    63.3000    62.5000    63.3000    60.9000    57.0000    61.7000    62.5000    58.6000    54.7000    50.8000    55.5000    56.3000    57.8000    62.5000    62.5000    54.7000    54.7000    56.3000    60.2000    60.9000    61.7000    61.7000    56.3000    63.3000    64.1000    71.1000    71.1000    68.8000    70.3000    65.6000    64.8000    70.3000    78.9000    75.8000    79.7000    76.6000    75.0000    76.6000    79.7000    83.6000    84.4000    85.9000    80.5000    82.0000    83.6000    89.8000    92.2000    93.0000    92.2000    84.4000    88.3000    91.4000    96.9000    98.4000    99.2000    96.1000    97.7000    97.7000    99.2000   100.0000   103.1000   101.6000    96.1000   100.0000    98.4000   102.3000   104.7000   105.5000    99.2000    93.0000    98.4000   100.8000   103.1000   107.0000   107.0000   105.5000   106.3000   103.1000   101.6000   107.0000   109.4000   106.3000   104.7000   106.3000   107.8000   111.7000   114.1000   115.6000   114.1000   108.6000   114.1000   110.2000   116.4000   118.8000   111.7000   107.0000   110.2000   107.0000   106.3000   113.3000   110.2000   108.6000   103.1000   102.3000   101.6000   100.0000   107.0000   105.5000   102.3000    99.2000    99.2000   100.8000   105.5000   100.8000    99.2000   105.5000   106.3000   103.1000   103.9000   110.2000   108.6000   107.0000   104.7000   103.9000   107.8000   110.2000   110.2000   110.2000   109.4000   102.3000   103.9000   107.0000   111.7000   107.8000   104.7000   109.4000   107.0000   110.9000   109.4000   110.2000   107.0000   107.8000   102.3000   100.0000   107.0000   117.2000   107.0000   102.3000   103.1000    99.2000   104.7000   103.1000   100.8000    95.3000    84.4000    81.3000    78.1000    78.1000    74.2000    71.9000    71.9000    68.8000    57.8000    60.2000    61.7000    59.4000    66.4000    71.1000    68.8000    70.3000    71.9000    71.9000    77.3000    82.0000    81.3000    77.3000    89.1000    85.2000    90.6000    95.3000   104.7000   101.6000   103.1000   107.8000   112.5000   112.5000   113.3000   119.5000   113.3000   115.6000   117.2000   114.8000   119.5000   119.5000   119.5000   118.8000   118.0000   114.8000   118.0000   121.1000   125.8000   116.4000   121.9000   124.2000   123.4000   122.7000   120.3000   121.1000   117.2000   117.2000   114.8000   120.3000   118.8000   114.8000   114.1000   113.3000   113.3000   114.8000   116.4000   118.8000   116.4000   108.6000   107.8000   106.3000   107.8000   109.4000   112.5000   109.4000   102.3000   105.5000   103.1000   105.5000   110.2000   107.0000   102.3000    96.9000   101.6000   101.6000   101.6000   100.8000   100.8000    94.5000    93.8000    91.4000    94.5000   101.6000   105.5000   107.8000   103.1000    95.3000    85.9000    82.8000    69.5000    57.8000    48.4000    43.0000    32.8000    30.5000    29.7000    26.6000    27.3000    25.0000    21.1000    25.8000    32.0000    34.4000    32.8000    32.8000    33.6000    35.9000    39.8000    45.3000    46.9000    50.8000    53.9000    57.8000    57.0000    59.4000    60.2000    66.4000    69.5000    68.8000    68.8000    74.2000    76.6000    75.8000    78.1000    76.6000    78.1000    77.3000    82.0000    89.1000    89.8000    89.8000    85.2000    84.4000    85.9000    91.4000    94.5000    96.1000    91.4000    87.5000    89.8000    91.4000    95.3000    89.8000    88.3000    85.9000    88.3000    86.7000    86.7000    88.3000    91.4000    88.3000    85.2000    88.3000    90.6000    88.3000    89.1000    88.3000    84.4000    85.2000    85.2000    82.8000    85.2000    86.7000    85.9000    80.5000    85.2000    83.6000    85.9000    87.5000    88.3000    80.5000    78.9000    83.6000    82.8000    85.2000    82.0000    78.9000    75.8000    79.7000    81.3000    80.5000    82.0000    85.9000    80.5000    75.8000    75.0000    76.6000    78.1000    79.7000    74.2000    72.7000    75.8000    80.5000    83.6000    89.8000    88.3000    85.2000    89.8000    92.2000    89.8000    94.5000    97.7000    90.6000    92.2000    89.1000    88.3000    90.6000    95.3000    94.5000    88.3000    87.5000    88.3000    89.8000    97.7000    93.8000    87.5000    78.1000    75.8000    71.9000    70.3000    67.2000    63.3000    55.5000    52.3000    51.6000    53.9000    55.5000    50.0000    50.0000    46.1000    46.9000    50.0000    50.8000    51.6000    52.3000    49.2000    43.0000    40.6000    34.4000    30.5000    34.4000    28.1000    25.8000    19.5000    20.3000    25.0000    25.8000    21.1000    18.0000    13.3000    18.8000    20.3000    31.3000    39.8000    35.2000    32.0000    42.2000    44.5000    49.2000    57.8000    64.1000    64.8000    71.9000    76.6000    80.5000    86.7000    90.6000    95.3000    93.0000    96.1000 