  1433.6000  1519.5000  1605.5000  1690.6000  1675.8000  1551.6000  1369.5000  1198.4000  1109.4000  1073.4000  1055.5000  1057.0000  1105.5000  1136.7000  1196.9000  1235.9000  1264.1000  1315.6000  1328.1000  1368.0000  1404.7000  1425.0000  1467.2000  1500.8000  1531.3000  1557.0000  1556.3000  1566.4000  1589.1000  1572.7000  1587.5000  1605.5000  1618.0000  1628.1000  1643.0000  1644.5000  1645.3000  1637.5000  1618.8000  1582.8000  1558.6000  1543.0000  1516.4000  1489.8000  1476.6000  1453.9000  1428.9000  1430.5000  1400.0000  1375.8000  1359.4000  1320.3000  1297.7000  1285.9000  1231.3000  1199.2000  1148.4000  1123.4000  1118.0000  1092.2000  1089.8000  1096.1000  1078.9000  1076.6000  1071.9000  1044.5000  1060.2000  1055.5000  1040.6000  1076.6000  1089.8000  1104.7000  1117.2000  1117.2000  1125.0000  1123.4000  1148.4000  1158.6000  1157.8000  1183.6000  1217.2000  1207.8000  1221.9000  1240.6000  1245.3000  1284.4000  1308.6000  1364.8000  1415.6000  1432.0000  1453.1000  1471.1000  1484.4000  1485.9000  1496.1000  1502.3000  1532.0000  1538.3000  1563.3000  1589.8000  1579.7000  1580.5000  1593.0000  1583.6000  1585.2000  1596.1000  1596.9000  1612.5000  1602.3000  1598.4000  1586.7000  1572.7000  1544.5000  1498.4000  1485.9000  1479.7000  1453.1000  1407.8000  1385.2000  1341.4000  1316.4000  1302.3000  1261.7000  1241.4000  1221.9000  1207.8000  1211.7000  1197.7000  1185.2000  1162.5000  1146.9000  1160.9000  1159.4000  1142.2000  1146.9000  1158.6000  1154.7000  1145.3000  1125.8000  1118.8000  1125.0000  1115.6000  1119.5000  1127.3000  1118.0000  1114.8000  1109.4000  1108.6000  1109.4000  1098.4000  1104.7000  1112.5000  1106.3000  1141.4000  1177.3000  1189.8000  1219.5000  1253.9000  1300.0000  1332.0000  1275.8000  1146.9000   966.4000   798.4000   693.0000   619.5000   611.7000   601.6000   594.5000   610.9000   650.8000   654.7000   671.1000   682.0000   668.0000   666.4000   655.5000   659.4000   676.6000   678.9000   650.0000   678.1000   675.0000   673.4000   671.1000   647.7000   646.1000   650.8000   658.6000   677.3000   661.7000   643.0000   641.4000   623.4000   639.8000   614.8000   594.5000   604.7000   607.8000   605.5000   595.3000   576.6000   550.0000   533.6000   507.0000   500.0000   485.2000   478.1000   479.7000   469.5000   463.3000   449.2000   418.0000   415.6000   425.0000   410.2000   418.8000   389.8000   377.3000   366.4000   335.2000   310.2000   288.3000   264.1000   275.0000   278.1000   271.1000   263.3000   238.3000   212.5000   194.5000   169.5000   161.7000   151.6000   129.7000   129.7000   126.6000    99.2000    83.6000    65.6000    53.1000    46.9000    14.1000    23.4000    28.1000    23.4000    -7.8000   -34.4000   -41.4000   -37.5000   -94.5000  -130.5000  -140.6000  -165.6000  -167.2000  -198.4000  -237.5000  -275.8000  -302.3000  -342.2000  -356.3000  -375.8000  -385.2000  -407.0000  -436.7000  -468.0000  -512.5000  -532.8000  -552.3000  -569.5000  -561.7000  -571.1000  -597.7000  -619.5000  -651.6000  -693.0000  -725.0000  -767.2000  -793.8000  -800.8000  -818.0000  -845.3000  -862.5000  -897.7000  -932.0000  -956.3000  -989.1000 -1011.7000 -1019.5000 -1026.6000 -1029.7000 -1053.9000 -1068.0000 -1078.1000 -1103.1000 -1111.7000 -1123.4000 -1142.2000 -1126.6000 -1160.2000 -1149.2000 -1150.8000 -1177.3000 -1203.1000 -1235.2000 -1248.4000 -1245.3000 -1250.0000 -1260.9000 -1258.6000 -1268.0000 -1289.1000 -1296.1000 -1316.4000 -1325.0000 -1329.7000 -1332.0000 -1305.5000 -1298.4000 -1311.7000 -1308.6000 -1328.9000 -1314.8000 -1325.0000 -1337.5000 -1320.3000 -1321.9000 -1334.4000 -1325.8000 -1325.0000 -1335.9000 -1342.2000 -1366.4000 -1348.4000 -1346.9000 -1351.6000 -1341.4000 -1334.4000 -1342.2000 -1334.4000 -1354.7000 -1361.7000 -1365.6000 -1375.0000 -1347.7000 -1324.2000 -1335.9000 -1333.6000 -1348.4000 -1366.4000 -1354.7000 -1364.8000 -1375.0000 -1383.6000 -1376.6000 -1355.5000 -1365.6000 -1385.2000 -1374.2000 -1393.8000 -1419.5000 -1413.3000 -1432.8000 -1418.8000 -1415.6000 -1430.5000 -1435.9000 -1440.6000 -1456.3000 -1471.9000 -1475.8000 -1473.4000 -1472.7000 -1471.1000 -1466.4000 -1471.1000 -1486.7000 -1470.3000 -1483.6000 -1506.3000 -1495.3000 -1500.8000 -1503.1000 -1485.2000 -1500.0000 -1507.8000 -1525.0000 -1542.2000 -1514.1000 -1510.9000 -1502.3000 -1473.4000 -1481.3000 -1475.0000 -1469.5000 -1503.9000 -1491.4000 -1497.7000 -1522.7000 -1500.8000 -1494.5000 -1491.4000 -1478.1000 -1489.8000 -1501.6000 -1514.8000 -1522.7000 -1491.4000 -1480.5000 -1486.7000 -1472.7000 -1468.8000 -1464.1000 -1458.6000 -1493.0000 -1481.3000 -1483.6000 -1475.0000 -1441.4000 -1424.2000 -1431.3000 -1421.1000 -1427.3000 -1429.7000 -1415.6000 -1427.3000 -1409.4000 -1410.9000 -1400.0000 -1371.9000 -1368.0000 -1371.1000 -1368.0000 -1368.0000 -1354.7000 -1338.3000 -1328.9000 -1285.9000 -1296.9000 -1293.8000 -1290.6000 -1288.3000 -1281.3000 -1286.7000 -1287.5000 -1265.6000 -1246.1000 -1253.9000 -1238.3000 -1241.4000 -1247.7000 -1237.5000 -1232.0000 -1222.7000 -1199.2000 -1196.1000 -1183.6000 -1158.6000 -1159.4000 -1172.7000 -1192.2000 -1190.6000 -1185.9000 -1176.6000 -1146.9000 -1129.7000 -1147.7000 -1130.5000 -1150.0000 -1157.8000 -1141.4000 -1142.2000 -1132.8000 -1118.8000 -1098.4000 -1094.5000 -1096.9000 -1103.1000 -1107.8000 -1112.5000 -1102.3000 -1079.7000 -1098.4000 -1086.7000 -1053.1000 -1038.3000 -1020.3000 -1014.1000 -1019.5000  -999.2000  -978.9000  -971.1000  -943.0000  -940.6000  -918.8000  -914.1000  -918.8000  -906.3000  -881.3000  -845.3000  -828.1000  -828.1000  -795.3000  -767.2000  -777.3000  -770.3000  -743.0000  -740.6000  -717.2000  -679.7000  -659.4000  -635.9000  -647.7000  -639.1000  -622.7000  -607.0000  -596.1000  -593.8000  -576.6000  -538.3000  -528.1000  -513.3000  -499.2000  -511.7000  -499.2000  -480.5000  -471.9000  -450.8000  -429.7000  -436.7000  -397.7000  -371.9000  -360.9000  -339.1000  -336.7000  -307.8000  -270.3000  -257.8000  -223.4000  -210.2000  -207.8000  -188.3000  -175.0000  -141.4000  -133.6000  -127.3000   -73.4000   -29.7000   -25.8000    -4.7000     3.1000    19.5000    33.6000    35.9000    67.2000   100.8000   116.4000   128.1000   160.9000   173.4000   198.4000   210.2000   227.3000   250.8000   276.6000   315.6000   334.4000   356.3000   383.6000   394.5000   386.7000   389.8000   397.7000   437.5000   465.6000   476.6000   493.0000   510.9000   505.5000   529.7000   532.8000   509.4000   537.5000   546.1000   540.6000   568.8000   582.8000   585.2000   585.2000   596.1000   600.0000   607.8000   622.7000   638.3000   639.1000   643.8000   654.7000   648.4000   650.8000   678.9000   693.8000   718.8000   708.6000   722.7000   754.7000   735.2000   735.2000   743.8000   744.5000   769.5000   785.2000   802.3000   823.4000   810.9000   806.3000   815.6000   823.4000   831.3000   839.8000   843.0000   868.0000   868.0000   868.8000   866.4000   856.3000   862.5000   878.9000   868.0000   900.0000   893.8000   906.3000   921.9000   905.5000   911.7000   930.5000   909.4000   912.5000   941.4000   935.2000   946.1000   940.6000   931.3000   941.4000   925.0000   918.0000   951.6000   953.1000   966.4000   945.3000   943.8000   974.2000   951.6000   949.2000   964.8000   975.8000  1000.0000  1014.8000  1014.8000  1035.9000  1043.8000  1030.5000  1043.8000  1045.3000  1050.0000  1072.7000  1089.8000  1109.4000  1136.7000  1128.1000  1142.2000  1138.3000  1132.0000  1159.4000  1183.6000  1209.4000  1216.4000  1227.3000  1259.4000  1260.2000  1255.5000  1265.6000  1253.9000  1253.9000  1270.3000  1269.5000  1279.7000  1271.1000  1239.8000  1250.0000  1234.4000  1193.8000  1174.2000  1168.0000  1148.4000  1130.5000  1120.3000  1096.1000  1065.6000  1038.3000  1031.3000  1035.2000  1023.4000  1029.7000  1016.4000  1019.5000  1014.1000   991.4000  1000.8000   984.4000   988.3000  1007.8000  1006.3000  1022.7000  1039.8000  1018.8000  1025.0000  1054.7000  1050.8000  1039.8000  1067.2000  1101.6000  1128.9000  1134.4000  1142.2000  1160.9000  1166.4000  1195.3000  1235.9000  1249.2000  1300.0000  1321.9000  1318.0000  1347.7000  1328.9000  1334.4000  1353.1000  1350.8000  1363.3000  1404.7000  1398.4000  1435.9000  1456.3000  1453.1000  1450.8000  1443.0000  1461.7000  1482.8000  1481.3000  1485.9000  1483.6000  1467.2000  1469.5000  1442.2000  1432.0000  1452.3000  1435.9000  1468.8000  1485.2000  1486.7000  1490.6000  1488.3000  1510.2000  1556.3000  1586.7000  1603.1000  1639.1000  1638.3000  1608.6000  1539.1000  1438.3000  1337.5000  1241.4000  1141.4000  1068.8000   990.6000   934.4000   883.6000   818.8000   743.8000   606.3000   437.5000   293.8000   139.1000    69.5000    63.3000   103.9000   176.6000   255.5000   304.7000   353.9000   400.0000   438.3000   475.0000   484.4000   490.6000   510.2000   499.2000   506.3000   508.6000   503.1000   518.8000   543.0000   563.3000   603.9000   625.8000   635.9000   648.4000   670.3000   702.3000   705.5000   712.5000   740.6000   768.8000   784.4000   790.6000   782.8000   796.1000   807.8000   803.1000   815.6000   815.6000   800.0000   793.0000   785.9000   768.0000   754.7000   721.1000   698.4000   707.0000   689.1000   684.4000   666.4000   658.6000   664.8000   635.2000   605.5000   592.2000   562.5000   562.5000   553.9000   528.1000   537.5000   512.5000   493.0000   481.3000   464.8000   443.0000   432.0000   407.8000   409.4000   402.3000   375.0000   371.9000   359.4000   345.3000   336.7000   317.2000   306.3000   312.5000   286.7000   280.5000   280.5000   269.5000   259.4000   232.0000   225.0000   229.7000   228.9000   232.0000   227.3000   213.3000   214.8000   197.7000   177.3000   169.5000   153.9000   146.9000   157.8000   135.9000   119.5000   104.7000    78.9000    80.5000    85.9000    75.8000    78.9000    69.5000    58.6000    51.6000    20.3000    10.9000    14.1000   -28.9000   -41.4000   -62.5000   -85.9000  -113.3000  -132.0000  -146.9000  -175.8000  -194.5000  -203.1000  -198.4000  -190.6000  -171.1000  -174.2000  -218.0000  -287.5000  -389.1000  -484.4000  -560.9000  -642.2000  -658.6000  -651.6000  -650.0000  -646.1000  -643.8000  -636.7000  -650.8000  -671.1000  -645.3000  -637.5000  -642.2000  -655.5000  -665.6000  -664.8000  -671.9000  -692.2000  -686.7000  -696.9000  -714.8000  -689.8000  -694.5000  -691.4000  -708.6000  -721.1000  -731.3000  -729.7000  -769.5000  -772.7000  -775.0000  -800.8000  -801.6000  -808.6000  -803.9000  -811.7000  -835.9000  -832.8000  -828.1000  -842.2000  -827.3000  -821.1000  -818.0000  -821.9000  -832.8000  -844.5000  -850.8000  -871.9000  -877.3000  -870.3000  -857.8000  -850.0000  -862.5000  -864.1000  -859.4000  -846.9000  -857.0000  -846.9000  -858.6000  -846.1000  -823.4000  -843.8000  -837.5000  -853.1000  -853.1000  -838.3000  -854.7000  -846.1000  -814.1000  -830.5000  -827.3000  -844.5000  -853.9000  -845.3000  -871.1000  -875.0000  -859.4000  -878.1000  -885.9000  -871.9000  -884.4000  -896.9000  -910.2000  -924.2000  -919.5000  -928.9000  -930.5000  -914.8000  -928.1000  -932.8000  -942.2000  -965.6000  -968.0000  -986.7000  -991.4000  -988.3000 -1018.0000 -1003.9000 -1003.9000 -1023.4000 -1025.8000 -1048.4000 -1054.7000 -1040.6000 -1046.1000 -1053.9000 -1034.4000 -1055.5000 -1066.4000 -1067.2000 -1068.8000 -1097.7000 -1101.6000 -1114.1000 -1105.5000 -1105.5000 -1114.1000 -1120.3000 -1150.0000 -1141.4000 -1139.8000 -1164.1000 -1146.1000 -1148.4000 -1173.4000 -1152.3000 -1157.8000 -1165.6000 -1178.1000 -1208.6000 -1198.4000 -1209.4000 -1231.3000 -1222.7000 -1236.7000 -1257.8000 -1251.6000 -1275.8000 -1290.6000 -1282.0000 -1314.1000 -1300.8000 -1282.8000 -1300.8000 -1284.4000 -1292.2000 -1300.8000 -1274.2000 -1303.9000 -1310.9000 -1319.5000 -1314.8000 -1296.9000 -1296.9000 -1282.8000 -1289.8000 -1298.4000 -1304.7000 -1294.5000 -1309.4000 -1293.8000 -1293.8000 -1294.5000 -1271.9000 -1268.8000 -1269.5000 -1243.0000 -1247.7000 -1255.5000 -1225.0000 -1225.0000 -1203.9000 -1191.4000 -1197.7000 -1198.4000 -1196.9000 -1189.1000 -1182.0000 -1178.9000 -1156.3000 -1158.6000 -1129.7000 -1104.7000 -1118.8000 -1121.9000 -1112.5000 -1094.5000 -1076.6000 -1060.9000 -1053.9000 -1033.6000 -1028.9000 -1022.7000 -1007.8000  -997.7000 -1009.4000 -1005.5000  -996.1000  -975.0000  -937.5000  -931.3000  -931.3000  -934.4000  -926.6000  -918.0000  -918.0000  -901.6000  -889.8000  -897.7000  -865.6000  -846.1000  -852.3000  -852.3000  -850.0000  -842.2000  -821.9000  -806.3000  -794.5000  -778.9000  -775.8000  -780.5000  -771.1000  -757.0000  -768.8000  -771.9000  -759.4000  -743.0000  -737.5000  -725.8000  -707.0000  -716.4000  -715.6000  -714.8000  -704.7000  -664.8000  -646.9000  -650.8000  -614.8000  -607.0000  -606.3000  -592.2000  -594.5000  -575.0000  -557.0000  -538.3000  -506.3000  -485.2000  -481.3000  -465.6000  -471.1000  -464.1000  -442.2000  -441.4000  -407.8000  -386.7000  -361.7000  -334.4000  -342.2000  -338.3000  -309.4000  -312.5000  -285.9000  -264.8000  -253.9000  -230.5000  -208.6000  -203.1000  -200.0000  -203.9000  -191.4000  -160.9000  -151.6000  -112.5000   -75.8000   -82.0000   -69.5000   -68.0000   -46.9000   -26.6000   -26.6000     0.0000    46.1000    31.3000    72.7000    81.3000    70.3000    73.4000    64.1000    88.3000   107.8000   123.4000   145.3000   185.2000   212.5000   227.3000   235.2000   265.6000   283.6000   288.3000   310.9000   357.0000   395.3000   413.3000   443.0000   439.8000   483.6000   510.9000   558.6000   603.9000   626.6000   658.6000   688.3000   693.8000   707.0000   720.3000   755.5000   789.8000   803.1000   837.5000   865.6000   871.1000   882.0000   902.3000   910.9000   918.0000   939.8000   953.1000   978.9000   997.7000  1010.2000  1025.8000  1014.8000  1011.7000  1018.8000  1013.3000  1030.5000  1018.8000  1007.0000  1006.3000   972.7000   922.7000   867.2000   808.6000   797.7000   757.8000   710.9000   684.4000   653.9000   615.6000   595.3000   580.5000   563.3000   548.4000   545.3000   557.8000   564.1000   562.5000   558.6000   535.9000   518.0000   514.1000   494.5000   494.5000   505.5000   498.4000   485.9000   465.6000   440.6000   456.3000   439.8000   427.3000   443.0000   454.7000   498.4000   501.6000   510.2000   518.8000   532.8000   534.4000   549.2000   564.8000   589.8000   614.8000   610.9000   643.0000   650.0000   636.7000   658.6000   655.5000   644.5000   680.5000   698.4000   728.1000   751.6000   757.8000   777.3000   795.3000   833.6000   871.9000   911.7000   964.1000   998.4000  1014.8000  1033.6000  1053.9000  1070.3000  1117.2000  1153.1000  1201.6000  1261.7000  1289.8000  1312.5000  1345.3000  1366.4000  1400.8000  1412.5000  1414.1000  1453.1000  1472.7000  1496.9000  1521.1000  1539.8000  1553.1000  1556.3000  1553.1000  1590.6000  1620.3000  1638.3000  1674.2000  1682.0000  1706.3000  1739.1000  1750.8000  1755.5000  1749.2000  1696.9000  1618.0000  1498.4000  1335.2000  1189.8000  1053.1000   948.4000   887.5000   857.8000   842.2000   849.2000   868.8000   907.0000   899.2000   889.8000   873.4000   832.8000   793.8000   710.9000   642.2000   602.3000   543.0000   486.7000   475.8000   439.1000   407.8000   402.3000   378.1000   387.5000   409.4000   410.9000   410.9000   406.3000   403.1000   403.1000   412.5000   436.7000   478.1000   486.7000   512.5000   529.7000   520.3000   546.1000   543.0000   553.1000   593.8000   605.5000   648.4000   686.7000   707.0000   731.3000   743.0000   739.1000   732.8000   723.4000   738.3000   755.5000   717.2000   689.1000   663.3000   627.3000   619.5000   613.3000   598.4000   613.3000   603.9000   602.3000   636.7000   625.0000   638.3000   623.4000   621.1000   635.9000   641.4000   650.8000   692.2000   691.4000   692.2000   698.4000   692.2000   696.1000   676.6000   677.3000   697.7000   721.1000   728.1000   732.0000   723.4000   708.6000   696.1000   692.2000   706.3000   714.1000   710.9000   718.0000   709.4000   700.8000   713.3000   691.4000   672.7000   666.4000   661.7000   654.7000   664.8000   667.2000   664.1000   655.5000   657.0000   650.8000   635.9000   652.3000   663.3000   647.7000   648.4000   648.4000   634.4000   631.3000   642.2000   644.5000   657.8000   664.8000   680.5000   693.8000   697.7000   694.5000   678.9000   682.8000   707.8000   718.8000   762.5000   792.2000   782.0000   781.3000   766.4000   764.1000   765.6000   736.7000   733.6000   745.3000   735.2000   725.8000   700.0000   678.1000   657.8000   647.7000   651.6000   671.1000   659.4000   671.9000   668.0000   653.1000   650.8000   643.0000   623.4000   614.8000   602.3000   596.1000   603.1000   564.8000   539.1000   500.8000   460.2000   432.8000   420.3000   411.7000   432.0000   427.3000   408.6000   403.1000   378.1000   367.2000   333.6000   300.8000   289.8000   254.7000   228.9000   228.9000   210.2000   181.3000   168.0000   148.4000   154.7000   152.3000   157.0000   164.1000   130.5000   107.0000    96.9000    82.0000    64.1000    52.3000    28.9000    35.2000    34.4000    12.5000    10.9000   -10.9000   -31.3000   -43.0000   -58.6000   -57.8000   -46.1000   -70.3000   -80.5000  -121.9000  -161.7000  -200.0000  -241.4000  -250.8000  -250.0000  -282.0000  -293.8000  -287.5000  -309.4000  -317.2000  -335.9000  -368.8000  -381.3000  -379.7000  -362.5000  -335.2000  -303.9000  -279.7000  -320.3000  -439.8000  -543.0000  -619.5000  -657.8000  -646.9000  -626.6000  -587.5000  -569.5000  -571.1000  -543.8000  -552.3000  -532.0000  -480.5000  -472.7000  -455.5000  -421.1000  -401.6000  -382.8000  -374.2000  -360.9000  -314.1000  -307.8000  -294.5000  -270.3000  -250.0000  -245.3000  -245.3000  -246.1000  -214.8000  -209.4000  -203.1000  -167.2000  -137.5000  -125.0000   -85.2000   -52.3000   -35.9000   -28.9000   -25.8000    14.8000    32.8000    69.5000   104.7000   100.0000    93.8000    90.6000    74.2000    88.3000    53.9000    28.1000    40.6000    49.2000    30.5000    26.6000     3.9000   -16.4000   -43.8000   -75.0000   -73.4000  -104.7000  -143.0000  -161.7000  -223.4000  -271.1000  -350.0000  -435.9000  -489.8000  -551.6000  -630.5000  -666.4000  -722.7000  -783.6000  -832.8000  -904.7000  -947.7000  -978.9000 -1003.1000 -1013.3000  -994.5000 -1008.6000  -982.0000  -952.3000  -934.4000  -900.0000  -864.1000  -814.1000  -746.9000  -688.3000  -618.0000  -580.5000  -626.6000  -701.6000  -801.6000  -866.4000  -892.2000  -930.5000  -896.1000  -845.3000  -823.4000  -767.2000  -721.9000  -710.2000  -696.9000  -681.3000  -657.0000  -615.6000  -590.6000  -560.2000  -538.3000  -544.5000  -530.5000  -517.2000  -510.2000  -519.5000  -538.3000  -529.7000  -533.6000  -618.0000  -713.3000  -814.1000  -930.5000  -997.7000 -1085.9000 -1156.3000 -1214.8000 -1302.3000 -1400.8000 -1456.3000 -1524.2000 -1571.9000 -1614.8000 -1660.2000 -1671.9000 -1691.4000 -1683.6000 -1686.7000 -1728.9000 -1764.1000 -1803.9000 -1874.2000 -1898.4000 -1946.9000 -1993.8000 -2010.9000 -2042.2000 -2072.7000 -2090.6000 -2135.9000 -2160.9000 -2180.5000 -2197.7000 -2168.0000 -2157.8000 -2144.5000 -2117.2000 -2108.6000 -2090.6000 -2069.5000 -2087.5000 -2062.5000 -2039.1000 -2019.5000 -1965.6000 -1925.0000 -1889.1000 -1859.4000 -1836.7000 -1803.1000 -1752.3000 -1714.1000 -1648.4000 -1597.7000 -1542.2000 -1496.9000 -1483.6000 -1445.3000 -1417.2000 -1400.8000 -1360.2000 -1325.8000 -1284.4000 -1220.3000 -1179.7000 -1157.0000 -1108.6000 -1063.3000 -1033.6000 -1009.4000  -989.1000  -948.4000  -934.4000  -925.8000  -917.2000  -928.9000  -935.9000  -945.3000  -952.3000  -953.1000  -950.0000  -961.7000  -962.5000  -989.8000 -1010.9000 -1007.8000 -1033.6000 -1055.5000 -1064.1000 -1082.0000 -1081.3000 -1082.0000 -1103.9000 -1114.8000 -1138.3000 -1164.1000 -1153.9000 -1144.5000 -1126.6000 -1107.8000 -1124.2000 -1090.6000 -1072.7000 -1075.8000 -1075.8000 -1085.9000 -1059.4000 -1040.6000 -1028.9000  -997.7000  -969.5000  -968.8000  -954.7000  -946.9000  -924.2000  -906.3000  -899.2000  -866.4000  -815.6000  -800.0000  -789.1000  -768.8000  -778.1000  -748.4000  -748.4000  -757.8000  -742.2000  -745.3000  -735.2000  -725.8000  -729.7000  -722.7000  -714.8000  -714.8000  -685.2000  -677.3000  -657.8000  -623.4000  -621.1000  -596.1000  -571.1000  -577.3000  -546.9000  -520.3000  -498.4000  -457.8000  -429.7000  -397.7000  -385.2000  -366.4000  -351.6000  -317.2000  -304.7000  -292.2000  -283.6000  -267.2000  -225.8000  -202.3000  -164.1000  -116.4000   -96.1000   -77.3000   -31.3000     0.8000    45.3000    68.8000    97.7000   143.8000   168.0000   190.6000   222.7000   232.0000   240.6000   239.8000   220.3000   216.4000   182.0000   156.3000   125.8000   120.3000   121.1000   127.3000   142.2000   185.2000   218.0000   241.4000   259.4000   284.4000   321.9000   383.6000   415.6000   481.3000   541.4000   563.3000   581.3000   591.4000   582.8000   594.5000   572.7000   564.1000   583.6000   587.5000   635.9000   703.9000   761.7000   839.1000   921.1000  1039.1000  1140.6000  1178.9000  1103.1000   935.9000   739.8000   620.3000   554.7000   543.8000   551.6000   546.1000   582.8000   645.3000   673.4000   701.6000   714.8000   713.3000   742.2000   755.5000   759.4000   778.9000   777.3000   775.8000   790.6000   793.8000   806.3000   796.1000   782.0000   787.5000   798.4000   816.4000   842.2000   850.0000   897.7000   927.3000   944.5000   993.0000  1019.5000  1029.7000  1084.4000  1112.5000  1157.0000  1216.4000  1221.9000  1246.1000  1274.2000  1288.3000  1323.4000  1364.1000  1381.3000  1418.0000  1437.5000  1444.5000  1456.3000  1459.4000  1482.0000  1486.7000  1499.2000  1534.4000  1572.7000  1603.1000  1674.2000  1720.3000  1764.1000  1793.0000  1782.0000  1778.9000  1779.7000  1754.7000  1712.5000  1663.3000  1593.8000  1539.8000  1460.9000  1376.6000  1291.4000  1171.1000  1035.2000   856.3000   657.0000   493.0000   364.8000   332.0000   363.3000   449.2000   565.6000   675.0000   746.9000   812.5000   857.0000   878.1000   941.4000   952.3000   982.0000  1028.1000  1052.3000  1084.4000  1106.3000  1108.6000  1138.3000  1168.8000  1164.1000  1177.3000  1183.6000  1196.9000  1227.3000  1228.1000  1242.2000  1235.2000  1219.5000  1245.3000  1238.3000  1257.8000  1287.5000  1311.7000  1303.9000  1310.2000  1308.6000  1304.7000  1285.9000  1280.5000  1298.4000  1300.0000  1315.6000  1327.3000  1308.6000  1323.4000  1342.2000  1340.6000  1375.8000  1401.6000  1442.2000  1506.3000  1543.8000  1582.0000  1568.0000  1436.7000  1258.6000  1074.2000   972.7000   964.8000   927.3000   943.0000   976.6000   974.2000  1005.5000  1042.2000  1053.1000  1079.7000  1108.6000  1121.1000  1139.1000  1146.9000  1139.1000  1136.7000  1117.2000  1112.5000  1127.3000  1127.3000  1141.4000  1153.9000  1150.8000  1178.9000  1155.5000  1153.1000  1143.8000  1135.2000  1143.8000  1110.2000  1118.0000  1140.6000  1122.7000  1114.1000  1100.0000  1100.8000  1106.3000  1125.0000  1125.8000  1123.4000  1111.7000  1091.4000  1094.5000  1084.4000  1080.5000  1080.5000  1068.0000  1069.5000  1068.0000  1044.5000  1053.1000  1035.9000  1026.6000  1037.5000  1019.5000  1027.3000  1042.2000  1032.8000  1026.6000  1000.0000   975.0000   988.3000   965.6000   934.4000   935.9000   931.3000   920.3000   907.8000   891.4000   885.2000   872.7000   866.4000   857.0000   837.5000   827.3000   835.2000   798.4000   783.6000   765.6000   721.9000   716.4000   714.8000   708.6000   714.8000   703.1000   684.4000   665.6000   639.1000   618.8000   586.7000   564.1000   554.7000   529.7000   492.2000   497.7000   470.3000   453.1000   429.7000   394.5000   374.2000   373.4000   362.5000   362.5000   330.5000   303.9000   293.8000   263.3000   253.9000   209.4000   171.9000   162.5000   135.2000   112.5000    90.6000    60.2000    24.2000   -10.9000   -49.2000   -68.0000   -80.5000  -106.3000  -128.1000  -136.7000  -161.7000  -176.6000  -203.9000  -225.0000  -251.6000  -271.9000  -266.4000  -268.0000  -288.3000  -299.2000  -321.9000  -328.9000  -336.7000  -353.9000  -361.7000  -358.6000  -357.8000  -353.9000  -371.9000  -399.2000  -407.8000  -414.8000  -439.8000  -450.0000  -456.3000  -454.7000  -457.0000  -472.7000  -475.0000  -488.3000  -510.2000  -516.4000  -527.3000  -531.3000  -524.2000  -537.5000  -525.0000  -532.0000  -557.8000  -561.7000  -584.4000  -582.0000  -587.5000  -588.3000  -594.5000  -585.9000  -586.7000  -585.9000  -604.7000  -625.8000  -613.3000  -621.1000  -611.7000  -612.5000  -618.0000  -617.2000  -628.1000  -643.0000  -641.4000  -668.8000  -695.3000  -705.5000  -742.2000  -725.0000  -721.1000  -748.4000  -750.0000  -752.3000  -764.8000  -758.6000  -753.1000  -749.2000  -747.7000  -744.5000  -728.1000  -727.3000  -737.5000  -711.7000  -711.7000  -716.4000  -710.9000  -701.6000  -694.5000  -685.2000  -716.4000  -724.2000  -732.8000  -756.3000  -757.8000  -760.9000  -759.4000  -763.3000  -787.5000  -788.3000  -780.5000  -804.7000  -801.6000  -795.3000  -796.1000  -795.3000  -804.7000  -796.9000  -822.7000  -854.7000  -866.4000  -875.8000  -901.6000  -894.5000  -887.5000  -880.5000  -893.0000  -914.1000  -930.5000  -908.6000  -944.5000  -951.6000  -938.3000  -939.1000  -928.9000  -923.4000  -918.8000  -904.7000  -904.7000  -891.4000  -871.9000  -848.4000  -810.2000  -772.7000  -753.1000  -723.4000  -741.4000  -742.2000  -723.4000  -735.2000  -723.4000  -701.6000  -688.3000  -668.8000  -662.5000  -677.3000  -667.2000  -674.2000  -696.9000  -688.3000  -700.0000  -710.2000  -718.0000  -729.7000  -728.9000  -760.2000  -797.7000  -796.9000  -804.7000  -799.2000  -784.4000  -781.3000  -778.9000  -804.7000  -863.3000  -908.6000  -971.9000 -1042.2000 -1079.7000 -1120.3000 -1147.7000 -1168.8000 -1208.6000 -1230.5000 -1238.3000 -1266.4000 -1244.5000 -1229.7000 -1218.8000 -1228.1000 -1275.8000 -1328.1000 -1404.7000 -1496.1000 -1522.7000 -1557.8000 -1562.5000 -1539.1000 -1528.1000 -1511.7000 -1518.0000 -1509.4000 -1494.5000 -1463.3000 -1478.9000 -1483.6000 -1460.2000 -1443.0000 -1419.5000 -1418.0000 -1409.4000 -1393.0000 -1407.8000 -1393.8000 -1370.3000 -1364.8000 -1316.4000 -1310.2000 -1292.2000 -1223.4000 -1227.3000 -1210.9000 -1208.6000 -1200.0000 -1164.1000 -1129.7000 -1114.1000 -1070.3000 -1060.9000 -1046.9000 -1023.4000 -1019.5000 -1014.1000  -996.9000  -978.1000  -946.9000  -935.9000  -910.2000  -882.0000  -881.3000  -883.6000  -881.3000  -865.6000  -838.3000  -821.1000  -826.6000  -789.8000  -771.9000  -769.5000  -757.0000  -765.6000  -757.0000  -734.4000  -722.7000  -692.2000  -671.1000  -673.4000  -674.2000  -673.4000  -670.3000  -670.3000  -674.2000  -659.4000  -646.9000  -645.3000  -628.1000  -619.5000  -632.0000  -617.2000  -621.9000  -618.8000  -591.4000  -585.9000  -560.2000  -560.2000  -555.5000  -547.7000  -557.0000  -550.8000  -554.7000  -557.8000  -527.3000  -500.8000  -485.9000  -476.6000  -482.8000  -492.2000  -477.3000  -478.1000  -484.4000  -462.5000  -458.6000  -453.1000  -432.0000  -437.5000  -428.9000  -439.8000  -444.5000  -422.7000  -414.1000  -401.6000  -397.7000  -389.8000  -351.6000  -360.2000  -374.2000  -360.9000  -365.6000  -352.3000  -328.1000  -327.3000  -306.3000  -306.3000  -314.1000  -304.7000  -289.1000  -289.8000  -278.1000  -277.3000  -273.4000  -266.4000  -268.0000  -255.5000  -260.2000  -267.2000  -257.0000  -240.6000  -235.2000  -210.9000  -203.9000  -191.4000  -185.9000  -192.2000  -184.4000  -168.8000  -181.3000  -163.3000  -146.1000  -134.4000  -113.3000  -132.0000  -137.5000  -130.5000  -138.3000  -129.7000  -118.0000  -105.5000   -93.0000   -90.6000   -71.9000   -35.2000   -32.8000   -30.5000   -24.2000   -15.6000    23.4000    55.5000    71.1000    81.3000    89.8000   107.0000   132.8000   144.5000   142.2000   141.4000   157.0000   172.7000   163.3000   169.5000   173.4000   157.8000   157.0000   188.3000   180.5000   183.6000   189.8000   181.3000   219.5000   228.1000   203.9000   201.6000   207.0000   204.7000   210.9000   185.9000   147.7000   129.7000    92.2000    59.4000     0.0000   -20.3000   -29.7000   -71.9000  -103.9000  -132.8000  -181.3000  -209.4000  -252.3000  -300.8000  -303.9000  -307.0000  -320.3000  -328.9000  -343.0000  -390.6000  -440.6000  -504.7000  -537.5000  -564.1000  -593.0000  -594.5000  -608.6000  -621.1000  -591.4000  -600.0000  -593.0000  -596.1000  -586.7000  -537.5000  -507.0000  -450.0000  -381.3000  -314.1000  -263.3000  -258.6000  -328.9000  -388.3000  -455.5000  -504.7000  -479.7000  -460.9000  -436.7000  -391.4000  -350.0000  -320.3000  -296.1000  -282.8000  -228.9000  -193.0000  -160.9000  -118.8000   -85.9000   -39.1000    -6.3000    16.4000    71.9000    99.2000   128.1000   168.8000   187.5000   204.7000   230.5000   244.5000   277.3000   308.6000   297.7000   324.2000   369.5000   391.4000   415.6000   450.0000   470.3000   507.8000   537.5000   536.7000   571.1000   601.6000   643.0000   653.1000   665.6000   676.6000   679.7000   711.7000   750.0000   768.0000   801.6000   834.4000   843.8000   884.4000   893.8000   897.7000   931.3000   949.2000   968.0000  1010.9000  1026.6000  1025.0000  1022.7000  1005.5000  1004.7000  1011.7000  1001.6000  1014.1000  1022.7000  1047.7000  1063.3000  1053.9000  1073.4000  1073.4000  1088.3000  1121.9000  1107.8000  1115.6000  1144.5000  1143.0000  1164.1000  1191.4000  1194.5000  1235.2000  1257.8000  1255.5000  1296.1000  1316.4000  1325.8000  1353.1000  1359.4000  1377.3000  1393.8000  1406.3000  1443.0000  1461.7000  1494.5000  1530.5000  1539.1000  1558.6000  1576.6000  1564.1000  1588.3000  1602.3000  1615.6000  1658.6000  1652.3000  1671.9000  1707.0000  1705.5000  1734.4000  1775.0000  1771.1000  1806.3000  1834.4000  1857.0000  1873.4000  1876.6000  1893.8000  1915.6000  1928.9000  1945.3000  1964.8000  1978.1000  2004.7000  1996.1000  2022.7000  2057.8000  2071.1000  2101.6000  2142.2000  2188.3000  2218.0000  2228.9000  2175.8000  2114.8000  1993.0000  1833.6000  1700.0000  1565.6000  1496.1000  1490.6000  1471.9000  1479.7000  1505.5000  1513.3000  1535.9000  1562.5000  1565.6000  1553.9000  1522.7000  1458.6000  1385.9000  1325.0000  1289.8000  1241.4000  1231.3000  1267.2000  1279.7000  1324.2000  1352.3000  1341.4000  1320.3000  1278.1000  1193.0000  1139.1000  1078.1000  1014.1000   962.5000   886.7000   805.5000   750.8000   658.6000   531.3000   360.2000   170.3000    16.4000  -112.5000  -144.5000  -104.7000   -39.8000    64.1000   123.4000   146.1000   178.1000   168.8000   141.4000   133.6000    84.4000    21.1000   -65.6000  -175.0000  -264.8000  -362.5000  -432.8000  -464.1000  -495.3000  -535.9000  -561.7000  -585.9000  -592.2000  -595.3000  -592.2000  -589.1000  -596.1000  -582.0000  -554.7000  -546.1000  -512.5000  -483.6000  -472.7000  -424.2000  -403.1000  -420.3000  -430.5000  -514.1000  -638.3000  -725.8000  -797.7000  -835.2000  -827.3000  -801.6000  -764.8000  -725.8000  -684.4000  -635.9000  -596.1000  -553.1000  -506.3000  -465.6000  -412.5000  -350.0000  -304.7000  -233.6000  -184.4000  -133.6000   -69.5000   -32.0000    17.2000    71.9000   121.1000   178.9000   239.1000   293.0000   359.4000   418.8000   468.8000   529.7000   593.8000   649.2000   710.9000   765.6000   824.2000   897.7000   928.9000   971.9000   989.8000  1009.4000  1046.9000  1063.3000  1077.3000  1075.0000  1055.5000  1055.5000  1022.7000   975.0000   946.1000   903.1000   849.2000   807.8000   753.9000   710.2000   642.2000   571.1000   516.4000   467.2000   402.3000   350.0000   309.4000   278.1000   264.1000   231.3000   224.2000   196.1000   144.5000   124.2000    97.7000    71.1000    43.0000    -2.3000   -18.8000   -16.4000   -53.1000   -84.4000  -125.0000  -171.1000  -196.1000  -225.0000  -269.5000  -303.9000  -378.1000  -439.8000  -489.1000  -546.1000  -610.9000  -678.1000  -747.7000  -791.4000  -848.4000  -892.2000  -911.7000  -977.3000 -1003.9000 -1021.9000 -1032.0000 -1021.9000 -1032.8000 -1025.0000  -978.1000  -978.9000  -967.2000  -952.3000  -950.0000  -940.6000  -945.3000  -925.0000  -896.1000  -873.4000  -856.3000  -846.1000  -854.7000  -849.2000  -846.1000  -831.3000  -809.4000  -797.7000  -804.7000  -764.8000  -760.9000  -764.8000  -760.9000  -757.8000  -738.3000  -736.7000  -743.0000  -710.2000  -712.5000  -724.2000  -721.1000  -726.6000  -735.9000  -753.9000  -764.1000  -750.0000  -753.9000  -760.9000  -734.4000  -729.7000  -745.3000  -751.6000  -760.2000  -743.0000  -722.7000  -718.8000  -689.8000  -685.2000  -691.4000  -677.3000  -676.6000  -668.8000  -670.3000  -673.4000  -635.9000  -614.1000  -615.6000  -595.3000  -586.7000  -609.4000  -603.1000  -599.2000  -595.3000  -582.8000  -591.4000  -571.9000  -565.6000  -583.6000  -576.6000  -578.9000  -609.4000  -604.7000  -610.2000  -607.8000  -608.6000  -629.7000  -631.3000  -651.6000  -693.0000  -696.9000  -710.9000  -707.0000  -697.7000  -718.8000  -710.2000  -706.3000  -732.8000  -732.8000  -733.6000  -760.2000  -758.6000  -758.6000  -759.4000  -753.1000  -777.3000  -791.4000  -801.6000  -814.8000  -828.9000  -840.6000  -838.3000  -835.9000  -857.8000  -845.3000  -847.7000  -878.9000  -876.6000  -889.8000  -906.3000  -886.7000  -892.2000  -888.3000  -895.3000  -917.2000  -925.8000  -906.3000  -925.0000  -946.9000  -948.4000  -947.7000  -924.2000  -939.8000  -957.0000  -961.7000  -988.3000 -1005.5000 -1009.4000 -1017.2000  -990.6000 -1015.6000 -1011.7000  -979.7000  -995.3000 -1010.9000 -1022.7000 -1043.8000 -1023.4000 -1012.5000 -1018.0000  -993.8000 -1001.6000 -1014.8000 -1021.1000 -1025.8000 -1031.3000 -1060.2000 -1063.3000 -1041.4000 -1031.3000 -1051.6000 -1041.4000 -1044.5000 -1068.0000 -1064.1000 -1080.5000 -1072.7000 -1064.8000 -1079.7000 -1061.7000 -1039.1000 -1054.7000 -1045.3000 -1058.6000 -1046.9000 -1034.4000 -1033.6000 -1016.4000  -980.5000  -978.1000  -965.6000  -965.6000  -970.3000  -956.3000  -970.3000  -961.7000  -930.5000  -925.8000  -911.7000  -903.9000  -909.4000  -896.1000  -900.8000  -894.5000  -869.5000  -857.8000  -838.3000  -824.2000  -818.0000  -800.0000  -810.2000  -819.5000  -803.9000  -794.5000  -773.4000  -740.6000  -735.2000  -710.2000  -698.4000  -700.8000  -692.2000  -681.3000  -682.0000  -647.7000  -628.1000  -605.5000  -585.2000  -582.8000  -571.9000  -569.5000  -559.4000  -545.3000  -539.8000  -514.8000  -486.7000  -494.5000  -482.8000  -501.6000  -553.1000  -585.9000  -614.1000  -645.3000  -650.8000  -663.3000  -660.2000  -634.4000  -638.3000  -631.3000  -602.3000  -579.7000  -548.4000  -519.5000  -497.7000  -460.2000  -453.9000  -456.3000  -469.5000  -489.1000  -494.5000  -528.9000  -548.4000  -539.1000  -545.3000  -567.2000  -575.0000  -599.2000  -600.8000  -589.1000  -589.8000  -553.9000  -517.2000  -474.2000  -446.9000  -426.6000  -412.5000  -385.9000  -365.6000  -354.7000  -359.4000  -379.7000  -390.6000  -400.8000  -416.4000  -413.3000  -417.2000  -390.6000  -351.6000  -325.8000  -251.6000  -178.1000  -119.5000   -48.4000   -28.1000  -163.3000  -378.9000  -575.0000  -693.8000  -746.1000  -774.2000  -774.2000  -775.8000  -780.5000  -767.2000  -750.0000  -753.9000  -743.0000  -737.5000  -710.9000  -698.4000  -707.0000  -699.2000  -710.9000  -724.2000  -721.9000  -721.1000  -734.4000  -752.3000  -793.8000  -806.3000  -814.1000  -832.0000  -818.8000  -800.8000  -796.1000  -775.8000  -760.2000  -732.0000  -692.2000  -689.8000  -666.4000  -630.5000  -601.6000  -558.6000  -532.8000  -499.2000  -465.6000  -448.4000  -403.1000  -363.3000  -354.7000  -343.8000  -337.5000  -293.8000  -253.1000  -228.9000  -208.6000  -185.2000  -178.9000  -160.2000  -128.9000   -94.5000   -67.2000   -27.3000    20.3000    54.7000    75.8000    96.9000   138.3000   160.9000   199.2000   239.8000   277.3000   321.9000   353.1000   371.9000   403.1000   412.5000   446.9000   473.4000   481.3000   524.2000   555.5000   584.4000   608.6000   616.4000   632.8000   660.9000   671.1000   687.5000   715.6000   744.5000   768.0000   785.9000   803.1000   824.2000   816.4000   820.3000   852.3000   865.6000   889.1000   898.4000   885.2000   921.9000   935.9000   923.4000   929.7000   943.8000   969.5000  1006.3000  1011.7000  1020.3000  1028.1000  1023.4000  1029.7000  1029.7000  1022.7000  1037.5000  1045.3000  1052.3000  1069.5000  1071.1000  1091.4000  1096.9000  1076.6000  1096.1000  1109.4000  1123.4000  1128.9000  1108.6000  1133.6000  1143.0000  1125.8000  1140.6000  1158.6000  1146.9000  1164.8000  1160.2000  1183.6000  1196.9000  1172.7000  1168.8000  1159.4000  1154.7000  1176.6000  1179.7000  1170.3000  1182.8000  1169.5000  1153.1000  1141.4000  1108.6000  1110.9000  1114.8000  1107.8000  1122.7000  1117.2000  1106.3000  1102.3000  1078.1000  1085.9000  1085.2000  1068.8000  1068.0000  1062.5000  1059.4000  1070.3000  1065.6000  1070.3000  1088.3000  1057.8000  1068.0000  1072.7000  1085.2000  1103.1000  1094.5000  1102.3000  1100.8000  1084.4000  1093.8000  1111.7000  1123.4000  1139.1000  1129.7000  1139.1000  1160.2000  1160.2000  1160.2000  1174.2000  1197.7000  1208.6000  1245.3000  1256.3000  1258.6000  1238.3000  1221.9000  1221.1000  1184.4000  1196.9000  1225.8000  1225.8000  1237.5000  1250.0000  1233.6000  1250.0000  1246.9000  1244.5000  1257.8000  1257.0000  1278.9000  1303.1000  1305.5000  1324.2000  1336.7000  1327.3000  1346.1000  1353.9000  1363.3000  1393.8000  1409.4000  1410.9000  1437.5000  1431.3000  1439.8000  1414.1000  1388.3000  1415.6000  1401.6000  1401.6000  1399.2000  1389.8000  1392.2000  1394.5000  1377.3000  1385.2000  1402.3000  1410.2000  1453.1000  1451.6000  1467.2000  1450.0000  1428.1000  1432.0000  1428.9000  1420.3000  1414.1000  1404.7000  1419.5000  1440.6000  1425.8000  1434.4000  1429.7000  1410.9000  1429.7000  1416.4000  1396.9000  1407.0000  1407.8000  1407.8000  1407.8000  1375.8000  1335.9000  1296.1000  1251.6000  1231.3000  1202.3000  1162.5000  1140.6000  1113.3000  1094.5000  1085.9000  1068.8000  1052.3000  1047.7000  1053.9000  1046.9000  1023.4000  1012.5000  1017.2000   982.0000   962.5000   970.3000   950.0000   964.8000   961.7000   948.4000   946.9000   928.1000   917.2000   923.4000   909.4000   916.4000   927.3000   928.9000   936.7000   917.2000   901.6000   892.2000   877.3000   854.7000   834.4000   824.2000   820.3000   817.2000   799.2000   797.7000   780.5000   762.5000   760.9000   755.5000   750.0000   732.0000   657.8000   601.6000   542.2000   467.2000   425.8000   389.8000   361.7000   344.5000   317.2000   313.3000   292.2000   258.6000   238.3000   209.4000   192.2000   215.6000   214.1000   236.7000   277.3000   300.0000   339.8000   354.7000   319.5000   232.0000    82.0000   -36.7000   -74.2000  -103.1000  -107.8000  -104.7000  -115.6000  -107.8000  -121.9000  -149.2000  -158.6000  -172.7000  -198.4000  -189.1000  -184.4000  -171.9000  -175.8000  -182.8000  -161.7000  -142.2000  -113.3000   -77.3000   -56.3000   -31.3000     5.5000    18.0000    75.0000   110.2000   120.3000   151.6000   180.5000   196.9000   236.7000   252.3000   280.5000   312.5000   305.5000   315.6000   298.4000   271.9000   243.8000   207.0000   211.7000   226.6000   199.2000   206.3000   212.5000   226.6000   264.8000   285.2000   322.7000   358.6000   389.8000   421.1000   482.0000   522.7000   564.1000   622.7000   667.2000   750.0000   797.7000   827.3000   860.2000   881.3000   870.3000   877.3000   870.3000   864.1000   859.4000   863.3000   868.0000   849.2000   863.3000   868.8000   836.7000   805.5000   754.7000   675.8000   564.1000   451.6000   314.8000   208.6000   116.4000    71.1000    89.1000   112.5000   144.5000   209.4000   268.0000   311.7000   330.5000   346.9000   394.5000   410.2000   430.5000   451.6000   478.1000   540.6000   574.2000   601.6000   634.4000   626.6000   610.2000   596.9000   532.0000   424.2000   335.2000   212.5000   114.1000    14.8000  -107.0000  -225.0000  -360.9000  -543.0000  -686.7000  -851.6000 -1029.7000 -1205.5000 -1425.8000 -1633.6000 -1877.3000 -2151.6000 -2406.3000 -2677.3000 -2946.1000 -3172.7000 -3339.1000 -3421.9000 -3482.8000 -3518.8000 -3526.6000 -3564.8000 -3595.3000 -3589.1000 -3600.0000 -3619.5000 -3623.4000 -3632.8000 -3619.5000 -3593.0000 -3569.5000 -3528.1000 -3510.2000 -3505.5000 -3468.8000 -3430.5000 -3386.7000 -3344.5000 -3293.0000 -3188.3000 -3090.6000 -2991.4000 -2844.5000 -2699.2000 -2520.3000 -2346.1000 -2286.7000 -2461.7000 -2832.8000 -3218.0000 -3437.5000 -3529.7000 -3512.5000 -3414.8000 -3322.7000 -3232.0000 -3129.7000 -3064.8000 -3003.1000 -2943.0000 -2924.2000 -2893.8000 -2846.9000 -2800.8000 -2779.7000 -2759.4000 -2698.4000 -2651.6000 -2601.6000 -2537.5000 -2473.4000 -2419.5000 -2335.9000 -2284.4000 -2232.8000 -2143.0000 -2076.6000 -2026.6000 -1971.9000 -1957.0000 -1900.0000 -1860.2000 -1830.5000 -1788.3000 -1739.1000 -1708.6000 -1660.9000 -1602.3000 -1555.5000 -1500.8000 -1493.8000 -1519.5000 -1596.1000 -1681.3000 -1734.4000 -1785.2000 -1790.6000 -1779.7000 -1751.6000 -1694.5000 -1656.3000 -1625.0000 -1568.0000 -1521.9000 -1500.0000 -1444.5000 -1405.5000 -1372.7000 -1325.8000 -1297.7000 -1248.4000 -1189.1000 -1144.5000 -1099.2000 -1085.9000 -1051.6000 -1034.4000 -1021.9000  -971.9000  -931.3000  -894.5000  -841.4000  -816.4000  -794.5000  -766.4000  -761.7000  -732.0000  -730.5000  -749.2000  -740.6000  -741.4000  -765.6000  -740.6000  -735.9000  -747.7000  -746.1000  -750.0000  -720.3000  -694.5000  -687.5000  -667.2000  -660.9000  -671.1000  -666.4000  -664.1000  -643.0000  -634.4000  -643.0000  -617.2000  -609.4000  -598.4000  -585.9000  -595.3000  -594.5000  -571.1000  -580.5000  -564.8000  -537.5000  -533.6000  -515.6000  -491.4000  -499.2000  -486.7000  -485.2000  -482.0000  -457.8000  -460.9000  -446.1000  -416.4000  -389.8000  -379.7000  -376.6000  -378.9000  -357.0000  -364.1000  -361.7000  -330.5000  -321.9000  -310.9000  -307.8000  -315.6000  -305.5000  -309.4000  -322.7000  -310.9000  -300.0000  -287.5000  -277.3000  -257.8000  -243.8000  -237.5000  -242.2000  -235.2000  -225.8000  -210.2000  -180.5000  -168.8000  -157.0000  -155.5000  -177.3000  -166.4000  -155.5000  -175.0000  -165.6000  -185.9000  -201.6000  -190.6000  -189.8000  -203.9000  -222.7000  -257.0000  -248.4000  -241.4000  -243.0000  -225.0000  -196.1000  -195.3000  -185.9000  -200.0000  -184.4000  -175.0000  -196.9000  -184.4000  -157.0000  -150.0000  -118.8000  -106.3000  -110.2000  -106.3000  -108.6000   -79.7000   -62.5000   -45.3000   -18.0000     0.8000    18.8000    49.2000    57.8000    82.8000    78.9000    76.6000   113.3000   146.9000   157.0000   191.4000   198.4000   207.0000   228.9000   226.6000   243.8000   268.0000   293.0000   316.4000   353.1000   368.8000   398.4000   401.6000   407.8000   443.8000   457.8000   493.0000   504.7000   521.9000   546.1000   548.4000   557.8000   579.7000   572.7000   601.6000   638.3000   652.3000   678.9000   693.0000   689.1000   698.4000   694.5000   702.3000   732.8000   738.3000   777.3000   796.9000   804.7000   830.5000   836.7000   857.0000   861.7000   872.7000   903.9000   933.6000   939.1000   969.5000   971.9000   967.2000   967.2000   970.3000   956.3000   966.4000   946.1000   961.7000   985.2000   982.8000   975.8000   964.8000   951.6000   964.8000   964.1000   971.9000   975.8000   973.4000   975.8000   978.1000   975.0000   986.7000   978.9000   989.8000  1020.3000  1053.1000  1060.2000  1065.6000  1064.1000  1072.7000  1082.8000  1076.6000  1085.2000  1088.3000  1103.9000  1112.5000  1086.7000  1069.5000  1070.3000  1064.1000  1078.1000  1104.7000  1117.2000  1163.3000  1171.9000  1177.3000  1181.3000  1185.2000  1199.2000  1199.2000  1207.0000  1246.1000  1253.9000  1271.1000  1311.7000  1304.7000  1301.6000  1286.7000  1271.9000  1248.4000  1212.5000  1155.5000  1098.4000  1046.1000   990.6000   960.2000   900.0000   877.3000   878.1000   878.1000   905.5000   913.3000   904.7000   914.1000   900.0000   875.0000   862.5000   837.5000   832.0000   825.8000   783.6000   775.0000   735.2000   696.9000   689.1000   683.6000   674.2000   695.3000   701.6000   697.7000   703.1000   696.1000   707.8000   730.5000   733.6000   745.3000   769.5000   782.0000   816.4000   860.2000   902.3000   919.5000   920.3000   961.7000   971.1000  1010.9000  1068.8000  1091.4000  1115.6000  1138.3000  1127.3000  1146.1000  1149.2000  1135.2000  1145.3000  1153.1000  1151.6000  1152.3000  1139.1000  1114.8000  1090.6000  1053.1000  1020.3000   980.5000   958.6000   953.9000   919.5000   891.4000   873.4000   835.9000   796.9000   770.3000   728.1000   706.3000   671.9000   662.5000   644.5000   597.7000   571.9000   541.4000   514.8000   522.7000   520.3000   503.9000   508.6000   493.0000   485.2000   490.6000   490.6000   527.3000   569.5000   596.1000   604.7000   584.4000   518.8000   486.7000   432.0000   419.5000   428.1000   415.6000   452.3000   472.7000   482.0000   510.2000   534.4000   546.1000   567.2000   576.6000   595.3000   624.2000   625.8000   636.7000   668.8000   685.2000   700.0000   701.6000   700.0000   725.0000   736.7000   765.6000   778.1000   786.7000   797.7000   793.8000   814.8000   835.2000   835.2000   854.7000   889.1000   893.8000   909.4000   914.1000   894.5000   902.3000   890.6000   893.0000   907.8000   908.6000   919.5000   931.3000   928.1000   926.6000   925.0000   915.6000   909.4000   909.4000   911.7000   919.5000   919.5000   911.7000   913.3000   885.2000   893.8000   870.3000   843.8000   860.9000   859.4000   865.6000   869.5000   848.4000   828.1000   810.9000   796.1000   790.6000   785.9000   764.1000   755.5000   763.3000   760.2000   750.8000   724.2000   696.9000   695.3000   699.2000   714.1000   708.6000   696.9000   693.8000   664.8000   658.6000   650.0000   623.4000   635.2000   633.6000   620.3000   622.7000   594.5000   564.8000   557.8000   528.1000   528.1000   522.7000   507.8000   512.5000   496.9000   475.0000   460.9000   433.6000   413.3000   397.7000   370.3000   368.0000   365.6000   330.5000   307.8000   266.4000   233.6000   214.8000   183.6000   172.7000   166.4000   153.1000   137.5000   117.2000    84.4000    57.0000     7.8000   -25.8000   -26.6000   -41.4000   -43.8000   -62.5000   -84.4000   -96.9000  -125.8000  -162.5000  -175.0000  -195.3000  -194.5000  -202.3000  -221.9000  -236.7000  -250.0000  -284.4000  -308.6000  -336.7000  -354.7000  -340.6000  -356.3000  -362.5000  -375.0000  -403.9000  -413.3000  -415.6000  -446.9000  -461.7000  -465.6000  -458.6000  -428.1000  -420.3000  -410.2000  -418.0000  -439.1000  -418.8000  -382.0000  -360.9000  -321.1000  -289.8000  -292.2000  -291.4000  -325.0000  -354.7000  -410.9000  -490.6000  -534.4000  -554.7000  -585.9000  -577.3000  -577.3000  -571.9000  -539.1000  -523.4000  -447.7000  -375.0000  -370.3000  -446.9000  -636.7000  -830.5000  -964.8000 -1057.0000 -1078.1000 -1085.9000 -1109.4000 -1085.9000 -1059.4000 -1054.7000 -1050.8000 -1061.7000 -1071.1000 -1081.3000 -1109.4000 -1100.0000 -1093.8000 -1122.7000 -1125.0000 -1135.9000 -1166.4000 -1186.7000 -1225.8000 -1255.5000 -1260.9000 -1273.4000 -1264.1000 -1248.4000 -1263.3000 -1264.8000 -1283.6000 -1303.1000 -1308.6000 -1329.7000 -1330.5000 -1325.8000 -1334.4000 -1332.0000 -1332.0000 -1351.6000 -1340.6000 -1354.7000 -1347.7000 -1323.4000 -1332.8000 -1330.5000 -1296.9000 -1289.8000 -1293.0000 -1307.0000 -1318.0000 -1310.2000 -1314.1000 -1311.7000 -1307.0000 -1343.8000 -1385.2000 -1420.3000 -1452.3000 -1482.0000 -1503.1000 -1511.7000 -1507.8000 -1522.7000 -1509.4000 -1498.4000 -1496.9000 -1499.2000 -1496.9000 -1490.6000 -1464.1000 -1443.0000 -1433.6000 -1402.3000 -1398.4000 -1392.2000 -1385.2000 -1394.5000 -1379.7000 -1382.8000 -1389.1000 -1354.7000 -1339.1000 -1339.1000 -1314.8000 -1320.3000 -1303.1000 -1275.8000 -1273.4000 -1246.1000 -1210.9000 -1181.3000 -1149.2000 -1123.4000 -1109.4000 -1093.0000 -1094.5000 -1063.3000 -1019.5000  -993.8000  -946.9000  -929.7000  -880.5000  -832.0000  -831.3000  -848.4000  -860.9000  -885.2000  -890.6000  -869.5000  -882.0000  -851.6000  -834.4000  -828.1000  -819.5000  -809.4000  -803.9000  -771.9000  -740.6000  -693.0000  -673.4000  -657.8000  -629.7000  -632.8000  -610.2000  -590.6000  -580.5000  -542.2000  -526.6000  -520.3000  -465.6000  -440.6000  -446.9000  -423.4000  -406.3000  -379.7000  -330.5000  -311.7000  -273.4000  -246.9000  -252.3000  -232.0000  -230.5000  -225.8000  -231.3000  -243.8000  -239.1000  -250.0000  -253.9000  -234.4000  -243.8000  -274.2000  -277.3000  -300.8000  -321.1000  -311.7000  -339.8000  -348.4000  -380.5000  -426.6000  -465.6000  -507.0000  -530.5000  -525.0000  -544.5000  -547.7000  -563.3000  -590.6000  -611.7000  -644.5000  -675.0000  -703.1000  -760.2000  -792.2000  -823.4000  -892.2000  -965.6000 -1028.9000 -1114.1000 -1189.1000 -1264.8000 -1328.1000 -1378.1000 -1435.9000 -1467.2000 -1493.8000 -1537.5000 -1550.8000 -1560.9000 -1568.0000 -1582.8000 -1607.0000 -1618.0000 -1600.0000 -1596.9000 -1596.9000 -1600.0000 -1607.0000 -1582.8000 -1553.9000 -1521.1000 -1482.8000 -1451.6000 -1439.1000 -1482.0000 -1588.3000 -1717.2000 -1812.5000 -1870.3000 -1866.4000 -1846.9000 -1812.5000 -1763.3000 -1728.9000 -1703.9000 -1668.8000 -1641.4000 -1605.5000 -1547.7000 -1501.6000 -1435.9000 -1383.6000 -1345.3000 -1286.7000 -1256.3000 -1220.3000 -1180.5000 -1148.4000 -1092.2000 -1043.8000 -1013.3000  -963.3000  -932.8000  -915.6000  -877.3000  -839.1000  -825.0000  -790.6000  -746.1000  -703.1000  -672.7000  -649.2000  -610.2000  -575.8000  -548.4000  -496.9000  -471.9000  -420.3000  -381.3000  -353.1000  -293.8000  -257.0000  -235.2000  -186.7000  -148.4000  -107.8000   -62.5000   -39.8000   -11.7000   -18.0000   -22.7000   -24.2000   -21.1000   -29.7000   -22.7000   -15.6000     0.8000    14.8000    43.8000    71.9000    89.8000   110.2000   149.2000   166.4000   207.0000   274.2000   309.4000   363.3000   408.6000   432.8000   476.6000   528.9000   564.8000   611.7000   662.5000   705.5000   747.7000   789.1000   831.3000   856.3000   882.0000   936.7000   990.6000  1043.8000  1103.1000  1144.5000  1218.0000  1287.5000  1315.6000  1347.7000  1372.7000  1388.3000  1414.1000  1436.7000  1457.0000  1489.8000  1503.1000  1522.7000  1556.3000  1579.7000  1602.3000  1625.8000  1664.1000  1727.3000  1772.7000  1820.3000  1866.4000  1875.8000  1890.6000  1899.2000  1881.3000  1854.7000  1810.2000  1749.2000  1718.8000  1661.7000  1621.9000  1590.6000  1505.5000  1445.3000  1348.4000  1205.5000  1043.8000   851.6000   684.4000   588.3000   558.6000   608.6000   695.3000   789.8000   894.5000   993.8000  1092.2000  1182.8000  1266.4000  1342.2000  1418.8000  1467.2000  1525.0000  1580.5000  1609.4000  1654.7000  1678.1000  1689.8000  1727.3000  1757.0000  1803.9000  1868.8000  1882.8000  1933.6000  1993.8000  2035.2000  2106.3000  2168.0000  2208.6000  2234.4000  2212.5000  2133.6000  2020.3000  1889.1000  1769.5000  1663.3000  1575.8000  1541.4000  1514.1000  1514.8000  1534.4000  1523.4000  1482.0000  1446.9000  1369.5000  1310.9000  1231.3000  1128.9000  1079.7000  1027.3000   993.8000  1010.2000  1009.4000   951.6000   835.9000   711.7000   617.2000   485.2000   360.2000   253.1000   185.9000   207.0000   251.6000   297.7000   384.4000   475.8000   529.7000   596.9000   645.3000   678.9000   703.9000   711.7000   703.9000   720.3000   725.0000   716.4000   710.2000   678.9000   660.2000   614.1000   544.5000   416.4000   240.6000    75.0000  -110.2000  -295.3000  -460.9000  -608.6000  -720.3000  -760.2000  -774.2000  -773.4000  -756.3000  -764.1000  -727.3000  -673.4000  -651.6000  -600.8000  -564.1000  -548.4000  -517.2000  -493.0000  -447.7000  -385.9000  -326.6000  -228.1000  -127.3000    -8.6000   132.0000   265.6000   386.7000   450.0000   464.8000   496.1000   528.9000   539.8000   582.8000   610.2000   657.8000   728.9000   757.8000   750.0000   718.8000   667.2000   605.5000   543.8000   421.9000   314.8000   239.8000   201.6000   225.0000   230.5000   290.6000   335.9000   389.8000   473.4000   525.0000   568.0000   651.6000   709.4000   768.0000   837.5000   889.8000   939.1000   981.3000  1021.9000  1075.0000  1110.2000  1135.9000  1188.3000  1231.3000  1261.7000  1283.6000  1292.2000  1321.9000  1377.3000  1430.5000  1519.5000  1639.8000  1789.1000  1912.5000  1881.3000  1621.9000  1239.1000   939.8000   798.4000   764.1000   789.8000   864.8000   932.0000   982.8000  1035.2000  1060.2000  1093.8000  1125.0000  1143.8000  1168.0000  1196.1000  1203.9000  1237.5000  1272.7000  1277.3000  1290.6000  1298.4000  1319.5000  1352.3000  1372.7000  1400.8000  1418.0000  1420.3000  1447.7000  1439.8000  1446.9000  1453.9000  1446.1000  1466.4000  1468.8000  1475.8000  1485.2000  1481.3000  1468.0000  1464.1000  1459.4000  1421.9000  1413.3000  1387.5000  1380.5000  1360.2000  1321.9000  1314.8000  1285.2000  1268.0000  1253.9000  1225.0000  1236.7000  1244.5000  1230.5000  1227.3000  1202.3000  1190.6000  1184.4000  1177.3000  1168.8000  1168.8000  1162.5000  1174.2000  1165.6000  1143.8000  1139.8000  1139.8000  1121.1000  1119.5000  1127.3000  1126.6000  1143.0000  1125.8000  1134.4000  1115.6000  1098.4000  1104.7000  1096.1000  1096.1000  1093.0000  1079.7000  1095.3000  1081.3000  1055.5000  1045.3000  1040.6000  1036.7000  1043.8000  1051.6000  1059.4000  1059.4000  1040.6000  1042.2000  1028.1000   985.9000   971.9000   948.4000   909.4000   900.8000   877.3000   855.5000   821.9000   774.2000   747.7000   718.8000   695.3000   676.6000   643.8000   617.2000   580.5000   540.6000   516.4000   470.3000   403.9000   364.8000   330.5000   278.9000   228.1000   164.8000   114.1000    81.3000    12.5000   -62.5000  -105.5000  -159.4000  -208.6000  -258.6000  -311.7000  -336.7000  -396.1000  -452.3000  -495.3000  -550.8000  -580.5000  -599.2000  -618.8000  -652.3000  -669.5000  -707.8000  -722.7000  -762.5000  -793.0000  -800.0000  -810.9000  -810.9000  -827.3000  -857.0000  -854.7000  -855.5000  -858.6000  -838.3000  -839.1000  -800.8000  -755.5000  -720.3000  -682.0000  -715.6000  -789.1000  -858.6000  -927.3000  -957.0000  -961.7000  -969.5000  -943.8000  -937.5000  -925.8000  -907.8000  -901.6000  -889.1000  -871.9000  -868.0000  -842.2000  -807.8000  -807.8000  -800.0000  -795.3000  -784.4000  -757.0000  -771.1000  -769.5000  -734.4000  -722.7000  -703.1000  -672.7000  -668.0000  -650.8000  -659.4000  -666.4000  -639.8000  -644.5000  -621.9000  -609.4000  -609.4000  -604.7000  -624.2000  -630.5000  -617.2000  -616.4000  -610.2000  -594.5000  -592.2000  -578.9000  -586.7000  -607.8000  -621.1000  -639.1000  -682.0000  -699.2000  -750.0000  -806.3000  -831.3000  -843.0000  -871.9000  -902.3000  -924.2000  -928.1000  -932.8000  -936.7000  -922.7000  -914.8000  -914.8000  -918.8000  -947.7000  -939.1000  -950.8000  -996.9000 -1010.9000 -1010.9000 -1032.0000 -1036.7000 -1054.7000 -1077.3000 -1092.2000 -1125.0000 -1134.4000 -1145.3000 -1164.8000 -1180.5000 -1182.0000 -1180.5000 -1164.1000 -1183.6000 -1175.0000 -1154.7000 -1154.7000 -1122.7000 -1092.2000 -1068.0000 -1042.2000 -1040.6000 -1037.5000 -1010.2000 -1002.3000 -1004.7000  -980.5000  -953.1000  -910.9000  -889.1000  -879.7000  -847.7000  -835.2000  -812.5000  -780.5000  -750.8000  -705.5000  -656.3000  -625.8000  -555.5000  -525.8000  -510.2000  -475.0000  -453.9000  -391.4000  -332.8000  -289.8000  -228.1000  -215.6000  -197.7000  -195.3000  -204.7000  -220.3000  -219.5000  -223.4000  -190.6000  -138.3000  -114.1000   -60.9000   -25.0000    21.9000   113.3000   168.0000   192.2000   123.4000   -60.9000  -225.8000  -322.7000  -366.4000  -358.6000  -319.5000  -246.1000  -178.1000  -118.8000   -45.3000    18.0000    24.2000    44.5000    32.8000    21.9000    32.8000    21.9000     7.8000    20.3000    -7.8000   -18.0000   -28.9000   -66.4000   -98.4000  -144.5000  -216.4000  -290.6000  -371.9000  -478.9000  -591.4000  -705.5000  -767.2000  -779.7000  -745.3000  -671.1000  -586.7000  -493.0000  -405.5000  -344.5000  -291.4000  -241.4000  -213.3000  -173.4000  -139.8000  -119.5000   -82.0000   -55.5000   -57.8000   -30.5000   -77.3000  -137.5000  -182.0000  -239.1000  -293.8000  -344.5000  -393.0000  -404.7000  -419.5000  -443.0000  -457.0000  -478.1000  -482.0000  -522.7000  -562.5000  -562.5000  -585.9000  -609.4000  -600.8000  -607.0000  -609.4000  -585.2000  -577.3000  -550.0000  -525.0000  -539.1000  -580.5000  -697.7000  -843.8000  -959.4000 -1040.6000 -1076.6000 -1097.7000 -1104.7000 -1082.0000 -1080.5000 -1109.4000 -1113.3000 -1169.5000 -1260.9000 -1368.8000 -1535.9000 -1700.8000 -1846.1000 -1990.6000 -2054.7000 -2063.3000 -2071.1000 -2051.6000 -2009.4000 -1952.3000 -1863.3000 -1772.7000 -1677.3000 -1591.4000 -1547.7000 -1498.4000 -1498.4000 -1546.9000 -1587.5000 -1666.4000 -1710.9000 -1714.1000 -1709.4000 -1669.5000 -1618.0000 -1543.8000 -1446.1000 -1360.9000 -1266.4000 -1193.0000 -1168.8000 -1161.7000 -1138.3000 -1090.6000 -1026.6000  -970.3000  -898.4000  -789.8000  -688.3000  -573.4000  -459.4000  -365.6000  -281.3000  -200.0000  -133.6000   -64.1000   -50.8000   -64.1000   -57.8000   -48.4000   -43.0000   -16.4000    20.3000    65.6000   110.2000   153.9000   229.7000   309.4000   386.7000   459.4000   509.4000   563.3000   593.0000   607.8000   643.8000   657.8000   656.3000   689.1000   723.4000   751.6000   757.8000   750.0000   739.1000   739.8000   731.3000   734.4000   724.2000   696.9000   688.3000   667.2000   643.0000   619.5000   566.4000   528.1000   468.0000   370.3000   287.5000   186.7000    73.4000   -32.0000  -169.5000  -255.5000  -321.1000  -347.7000  -335.2000  -307.0000  -284.4000  -253.9000  -230.5000  -206.3000  -166.4000  -133.6000   -72.7000    -8.6000    15.6000    69.5000   120.3000   175.8000   228.9000   260.9000   305.5000   360.2000   384.4000   432.0000   477.3000   510.2000   539.1000   557.8000   592.2000   630.5000   640.6000   674.2000   744.5000   779.7000   826.6000   843.0000   839.8000   824.2000   785.9000   770.3000   791.4000   801.6000   825.0000   855.5000   862.5000   903.1000   923.4000   985.2000  1028.9000  1050.0000  1087.5000  1135.2000  1156.3000  1186.7000  1220.3000  1232.8000  1267.2000  1285.9000  1309.4000  1352.3000  1368.8000  1404.7000  1442.2000  1453.1000  1471.1000  1522.7000  1553.1000  1637.5000  1757.0000  1894.5000  2017.2000  2015.6000  1821.9000  1482.8000  1156.3000   957.0000   876.6000   868.0000   928.1000   975.8000  1050.0000  1116.4000  1132.0000  1153.9000  1164.8000  1165.6000  1196.1000  1225.0000  1224.2000  1243.0000  1251.6000  1257.8000  1256.3000  1268.8000  1271.9000  1280.5000  1298.4000  1298.4000  1307.8000  1332.0000  1339.1000  1325.0000  1323.4000  1334.4000  1329.7000  1359.4000  1371.9000  1358.6000  1372.7000  1378.1000  1357.0000  1382.0000  1393.8000  1412.5000  1437.5000  1434.4000  1450.0000  1447.7000  1409.4000  1393.8000  1368.8000  1318.8000  1310.9000  1283.6000  1267.2000  1252.3000  1232.0000  1242.2000  1207.0000  1192.2000  1199.2000  1185.2000  1193.8000  1194.5000  1155.5000  1191.4000  1194.5000  1168.8000  1168.0000  1166.4000  1169.5000  1178.9000  1181.3000  1168.8000  1170.3000  1157.8000  1170.3000  1146.9000  1140.6000  1110.2000  1075.0000  1068.8000  1066.4000  1031.3000  1016.4000   993.8000   978.9000   992.2000   975.0000   960.2000   978.9000   974.2000   963.3000   964.1000   941.4000   919.5000   887.5000   868.0000   862.5000   843.8000   830.5000   820.3000   789.1000   775.0000   772.7000   776.6000   763.3000   747.7000   745.3000   755.5000   746.9000   750.0000   745.3000   729.7000   725.8000   725.0000   723.4000   746.9000   746.9000   738.3000   751.6000   752.3000   740.6000   742.2000   727.3000   714.8000   719.5000   710.9000   703.9000   693.8000   664.8000   646.9000   615.6000   601.6000   571.1000   525.0000   516.4000   496.9000   456.3000   446.9000   416.4000   382.8000   349.2000   309.4000   292.2000   268.8000   248.4000   250.0000   240.6000   210.2000   198.4000   163.3000   154.7000   152.3000   124.2000   127.3000   117.2000   103.1000   100.8000    93.8000    87.5000    78.9000    46.1000    56.3000    78.1000    82.0000    81.3000    74.2000    75.0000    83.6000    68.0000    67.2000    79.7000    73.4000    72.7000   105.5000   107.8000   110.2000   115.6000   114.1000   127.3000   128.1000   149.2000   175.0000   177.3000   182.8000   189.1000   189.1000   215.6000   193.8000   184.4000   205.5000   213.3000   220.3000   230.5000   228.1000   225.0000   227.3000   220.3000   239.8000   235.9000   271.1000   313.3000   320.3000   341.4000   343.8000   336.7000   348.4000   354.7000   342.2000   340.6000   343.8000   345.3000   348.4000   325.8000   291.4000   268.8000   271.9000   292.2000   296.1000   313.3000   309.4000   309.4000   323.4000   322.7000   306.3000   314.8000   314.1000   289.1000   280.5000   295.3000   271.1000   257.0000   242.2000   234.4000   225.8000   201.6000   200.0000   220.3000   214.1000   218.8000   207.0000   194.5000   202.3000   159.4000   125.8000   126.6000    84.4000    35.2000   -57.0000  -190.6000  -326.6000  -476.6000  -596.9000  -693.8000  -775.8000  -797.7000  -828.1000  -858.6000  -832.0000  -807.8000  -766.4000  -728.9000  -707.0000  -721.9000  -801.6000  -988.3000 -1173.4000 -1335.9000 -1432.8000 -1478.9000 -1525.8000 -1537.5000 -1541.4000 -1579.7000 -1566.4000 -1564.1000 -1568.0000 -1542.2000 -1508.6000 -1482.0000 -1428.9000 -1353.1000 -1270.3000 -1196.1000 -1171.1000 -1132.8000 -1120.3000 -1125.8000 -1135.9000 -1150.0000 -1164.8000 -1170.3000 -1200.8000 -1190.6000 -1171.1000 -1189.8000 -1192.2000 -1182.8000 -1186.7000 -1178.1000 -1199.2000 -1224.2000 -1278.9000 -1368.0000 -1434.4000 -1490.6000 -1519.5000 -1590.6000 -1685.9000 -1740.6000 -1764.1000 -1794.5000 -1769.5000 -1721.9000 -1710.9000 -1678.1000 -1624.2000 -1578.1000 -1532.0000 -1492.2000 -1453.9000 -1422.7000 -1414.8000 -1414.8000 -1388.3000 -1376.6000 -1371.1000 -1357.0000 -1338.3000 -1303.9000 -1305.5000 -1308.6000 -1313.3000 -1376.6000 -1454.7000 -1518.0000 -1607.8000 -1657.0000 -1721.9000 -1758.6000 -1758.6000 -1782.0000 -1806.3000 -1802.3000 -1826.6000 -1857.0000 -1858.6000 -1885.9000 -1886.7000 -1904.7000 -1915.6000 -1901.6000 -1875.8000 -1865.6000 -1838.3000 -1803.1000 -1696.1000 -1584.4000 -1458.6000 -1279.7000 -1142.2000 -1025.8000  -943.0000  -903.9000  -886.7000  -908.6000 -1005.5000 -1120.3000 -1223.4000 -1378.9000 -1516.4000 -1610.2000 -1613.3000 -1540.6000 -1451.6000 -1332.0000 -1203.9000 -1095.3000  -964.8000  -876.6000  -802.3000  -718.0000  -681.3000  -637.5000  -553.9000  -503.1000  -454.7000  -396.1000  -359.4000  -311.7000  -264.1000  -212.5000  -162.5000  -121.9000   -82.8000   -36.7000     1.6000    33.6000    28.9000    20.3000    17.2000    -3.1000   -12.5000   -33.6000   -51.6000   -82.0000   -86.7000  -110.2000  -108.6000  -103.9000  -122.7000  -102.3000   -88.3000   -68.0000   -49.2000   -51.6000   -37.5000   -25.0000   -24.2000    19.5000    44.5000    72.7000   113.3000   130.5000   150.8000   184.4000   237.5000   332.0000   426.6000   393.8000   235.2000   -70.3000  -447.7000  -769.5000  -950.0000  -996.1000  -945.3000  -919.5000  -892.2000  -848.4000  -835.9000  -821.9000  -875.0000  -939.1000 -1028.1000 -1143.8000 -1244.5000 -1326.6000 -1381.3000 -1415.6000 -1463.3000 -1502.3000 -1542.2000 -1589.8000 -1591.4000 -1581.3000 -1613.3000 -1675.0000 -1730.5000 -1768.0000 -1743.8000 -1696.1000 -1644.5000 -1572.7000 -1500.8000 -1385.2000 -1269.5000 -1146.1000  -996.9000  -878.1000  -789.8000  -713.3000  -710.2000  -735.2000  -714.8000  -680.5000  -595.3000  -493.8000  -397.7000  -282.8000  -208.6000  -136.7000   -75.8000     0.8000    94.5000   172.7000   224.2000   303.9000   377.3000   431.3000   485.9000   535.2000   589.8000   657.8000   718.0000   795.3000   886.7000   923.4000   972.7000  1028.9000  1087.5000  1138.3000  1178.9000  1227.3000  1316.4000  1363.3000  1396.1000  1408.6000  1374.2000  1289.8000  1172.7000  1012.5000   837.5000   671.1000   560.9000   487.5000   412.5000   354.7000   319.5000   325.0000   334.4000   348.4000   374.2000   391.4000   387.5000   357.8000   335.9000   292.2000   243.8000   195.3000   161.7000   168.0000   172.7000   157.8000   153.1000   139.1000   119.5000    93.8000    71.1000    52.3000    24.2000     1.6000   -22.7000   -82.0000  -122.7000  -176.6000  -229.7000  -273.4000  -305.5000  -328.1000  -357.8000  -420.3000  -506.3000  -586.7000  -702.3000  -807.8000  -892.2000  -967.2000  -973.4000  -958.6000  -942.2000  -851.6000  -802.3000  -772.7000  -724.2000  -686.7000  -642.2000  -625.0000  -583.6000  -560.2000  -545.3000  -547.7000  -528.1000  -518.0000  -502.3000  -456.3000  -421.1000  -367.2000  -339.1000  -318.0000  -272.7000  -238.3000  -232.8000  -187.5000  -153.1000  -107.0000   -43.0000    22.7000   102.3000   147.7000   168.0000   174.2000   183.6000   171.1000   146.1000   134.4000   175.8000   200.8000   198.4000   236.7000   260.9000   286.7000   310.2000   333.6000   371.1000   423.4000   447.7000   452.3000   460.2000   465.6000   509.4000   532.8000   533.6000   587.5000   618.0000   634.4000   695.3000   720.3000   753.9000   775.8000   812.5000   902.3000   971.9000  1074.2000  1191.4000  1332.8000  1471.1000  1528.9000  1358.6000  1085.2000   811.7000   627.3000   578.9000   596.1000   660.2000   739.1000   796.1000   842.2000   906.3000   946.1000  1010.2000  1070.3000  1109.4000  1143.8000  1159.4000  1181.3000  1208.6000  1205.5000  1239.8000  1272.7000  1287.5000  1310.2000  1330.5000  1352.3000  1368.0000  1370.3000  1385.2000  1403.1000  1413.3000  1442.2000  1468.0000  1475.0000  1504.7000  1507.0000  1505.5000  1553.9000  1560.9000  1575.8000  1611.7000  1637.5000  1655.5000  1686.7000  1700.8000  1727.3000  1718.0000  1729.7000  1761.7000  1772.7000  1811.7000  1822.7000  1826.6000  1866.4000  1888.3000  1894.5000  1919.5000  1942.2000  1943.8000  1971.9000  1956.3000  1973.4000  1988.3000  1965.6000  1967.2000  1953.9000  1957.0000  1985.2000  1996.1000  2013.3000  2031.3000  1999.2000  1992.2000  1980.5000  1952.3000  1954.7000  1967.2000  1993.0000  2007.0000  2001.6000  2008.6000  2004.7000  1998.4000  2031.3000  2010.9000  2006.3000  2028.1000  2017.2000  2021.1000  2014.1000  1985.9000  1959.4000  1956.3000  1939.1000  1950.8000  1960.9000  1960.9000  1993.0000  1992.2000  2006.3000  2000.8000  1989.8000  2017.2000  2034.4000  2053.1000  2063.3000  2081.3000  2123.4000  2149.2000  2154.7000  2187.5000  2206.3000  2221.1000  2261.7000  2284.4000  2297.7000  2342.2000  2358.6000  2350.0000  2359.4000  2376.6000  2404.7000  2456.3000  2489.8000  2538.3000  2554.7000  2579.7000  2621.1000  2660.2000  2688.3000  2727.3000  2764.1000  2829.7000  2885.9000  2939.8000  3010.9000  3068.8000  3122.7000  3185.2000  3230.5000  3281.3000  3356.3000  3426.6000  3548.4000  3677.3000  3675.0000  3525.8000  3207.8000  2827.3000  2534.4000  2364.1000  2306.3000  2325.8000  2350.0000  2377.3000  2348.4000  2304.7000  2274.2000  2189.1000  2060.2000  1818.0000  1496.9000  1185.9000   911.7000   656.3000   428.9000   221.1000    23.4000  -132.8000  -275.0000  -368.8000  -439.8000  -512.5000  -561.7000  -596.1000  -663.3000  -700.8000  -755.5000  -795.3000  -860.2000  -966.4000 -1106.3000 -1289.8000 -1492.2000 -1649.2000 -1790.6000 -1907.0000 -1983.6000 -2069.5000 -2110.2000 -2145.3000 -2188.3000 -2220.3000 -2239.1000 -2262.5000 -2272.7000 -2280.5000 -2303.9000 -2315.6000 -2346.9000 -2368.8000 -2377.3000 -2377.3000 -2343.0000 -2296.9000 -2237.5000 -2160.2000 -2085.2000 -1993.0000 -1908.6000 -1879.7000 -1852.3000 -1831.3000 -1814.1000 -1769.5000 -1718.0000 -1669.5000 -1644.5000 -1607.0000 -1584.4000 -1538.3000 -1523.4000 -1526.6000 -1545.3000 -1594.5000 -1649.2000 -1721.9000 -1778.1000 -1785.2000 -1764.1000 -1728.1000 -1646.1000 -1562.5000 -1428.9000 -1321.1000 -1239.1000 -1150.8000 -1121.9000 -1144.5000 -1177.3000 -1216.4000 -1239.1000 -1240.6000 -1244.5000 -1234.4000 -1243.8000 -1254.7000 -1270.3000 -1287.5000 -1323.4000 -1378.9000 -1472.7000 -1571.9000 -1689.1000 -1866.4000 -1998.4000 -2088.3000 -2125.8000 -2089.1000 -2000.8000 -1881.3000 -1760.2000 -1689.8000 -1588.3000 -1469.5000 -1367.2000 -1289.8000 -1233.6000 -1160.2000 -1093.8000 -1050.8000  -982.0000  -910.2000  -872.7000  -818.8000  -777.3000  -720.3000  -678.1000  -687.5000  -682.8000  -682.0000  -743.0000  -787.5000  -835.2000  -907.0000  -937.5000  -946.1000  -941.4000  -910.9000  -874.2000  -846.9000  -796.1000  -748.4000  -707.0000  -692.2000  -655.5000  -604.7000  -592.2000  -559.4000  -528.9000  -513.3000  -501.6000  -488.3000  -485.2000  -480.5000  -480.5000  -486.7000  -486.7000  -493.0000  -524.2000  -507.8000  -529.7000  -550.8000  -580.5000  -637.5000  -651.6000  -686.7000  -718.0000  -726.6000  -751.6000  -776.6000  -775.8000  -785.9000  -767.2000  -785.2000  -790.6000  -778.9000  -771.1000  -778.9000  -770.3000  -780.5000  -792.2000  -789.8000  -806.3000  -793.8000  -772.7000  -778.1000  -778.9000  -754.7000  -751.6000  -741.4000  -760.9000  -760.9000  -748.4000  -760.9000  -740.6000  -739.8000  -750.0000  -749.2000  -755.5000  -763.3000  -764.8000  -785.9000  -789.8000  -779.7000  -781.3000  -750.8000  -757.0000  -775.0000  -773.4000  -778.1000  -787.5000  -800.8000  -813.3000  -801.6000  -789.1000  -799.2000  -788.3000  -803.1000  -809.4000  -804.7000  -808.6000  -800.8000  -770.3000  -780.5000  -754.7000  -729.7000  -726.6000  -702.3000  -707.0000  -693.8000  -671.1000  -667.2000  -639.8000  -614.8000  -617.2000  -600.8000  -594.5000  -582.8000  -559.4000  -570.3000  -551.6000  -504.7000  -492.2000  -463.3000  -421.9000  -412.5000  -396.1000  -386.7000  -360.2000  -337.5000  -315.6000  -303.9000  -271.9000  -247.7000  -224.2000  -221.1000  -211.7000  -184.4000  -168.8000  -139.8000   -96.1000   -67.2000   -40.6000   -16.4000   -39.1000   -89.8000  -197.7000  -322.7000  -432.8000  -525.0000  -583.6000  -596.1000  -631.3000  -645.3000  -658.6000  -693.0000  -685.9000  -698.4000  -705.5000  -680.5000  -683.6000  -692.2000  -689.8000  -700.8000  -676.6000  -700.0000  -703.1000  -688.3000  -681.3000  -669.5000  -654.7000  -647.7000  -650.8000  -639.1000  -632.0000  -602.3000  -574.2000  -565.6000  -531.3000  -491.4000  -471.9000  -446.9000  -432.8000  -404.7000  -378.9000  -350.8000  -293.8000  -270.3000  -242.2000  -203.9000  -195.3000  -182.0000  -166.4000  -155.5000  -123.4000   -99.2000   -94.5000   -75.8000   -56.3000   -42.2000   -25.0000   -16.4000   -13.3000   -10.9000   -52.3000  -113.3000  -218.8000  -380.5000  -529.7000  -689.8000  -812.5000  -879.7000  -917.2000  -924.2000  -918.0000  -914.8000  -885.9000  -882.0000  -890.6000  -876.6000  -910.9000  -971.1000 -1029.7000 -1092.2000 -1160.9000 -1227.3000 -1310.2000 -1374.2000 -1449.2000 -1504.7000 -1515.6000 -1542.2000 -1536.7000 -1523.4000 -1525.0000 -1514.8000 -1508.6000 -1506.3000 -1468.0000 -1461.7000 -1436.7000 -1385.9000 -1348.4000 -1287.5000 -1249.2000 -1220.3000 -1173.4000 -1118.8000 -1082.0000 -1043.8000 -1008.6000  -989.8000 -1002.3000  -996.1000  -984.4000  -968.0000  -939.8000  -913.3000  -889.8000  -835.9000  -749.2000  -692.2000  -643.0000  -598.4000  -568.8000  -518.8000  -489.1000  -476.6000  -450.8000  -417.2000  -399.2000  -379.7000  -382.8000  -375.8000  -358.6000  -363.3000  -343.0000  -350.0000  -343.8000  -336.7000  -339.1000  -359.4000  -369.5000  -419.5000  -452.3000  -464.1000  -507.8000  -518.8000  -540.6000  -599.2000  -657.8000  -756.3000  -854.7000  -941.4000 -1057.8000 -1122.7000 -1145.3000 -1155.5000 -1122.7000 -1112.5000 -1090.6000 -1057.8000 -1022.7000  -988.3000  -937.5000  -907.0000  -846.1000  -796.9000  -739.1000  -677.3000  -636.7000  -607.8000  -556.3000  -516.4000  -464.1000  -397.7000  -363.3000  -313.3000  -272.7000  -244.5000  -212.5000  -175.0000  -121.1000   -71.9000   -22.7000    67.2000   139.1000   192.2000   253.9000   268.0000   295.3000   302.3000   285.9000   311.7000   343.8000   360.9000   401.6000   450.0000   485.2000   536.7000   577.3000   648.4000   717.2000   770.3000   821.9000   881.3000   938.3000   950.8000   924.2000   921.1000   933.6000   928.1000   945.3000   953.1000   978.9000  1032.8000  1065.6000  1108.6000  1160.9000  1254.7000  1373.4000  1510.9000  1587.5000  1592.2000  1558.6000  1457.8000  1275.0000   979.7000   660.9000   428.1000   297.7000   258.6000   295.3000   339.8000   400.8000   475.0000   543.0000   580.5000   607.8000   643.0000   693.8000   718.0000   746.1000   768.8000   760.2000   755.5000   771.1000   791.4000   828.1000   842.2000   839.1000   871.9000   888.3000   889.1000   896.9000   893.0000   921.1000   940.6000   953.9000   993.0000  1003.1000  1003.9000  1018.0000  1025.0000  1028.9000  1043.0000  1041.4000  1075.0000  1076.6000  1078.9000  1094.5000  1085.9000  1096.9000  1098.4000  1061.7000  1053.9000  1059.4000  1025.0000  1050.0000  1060.9000  1034.4000  1063.3000  1068.0000  1044.5000  1053.9000  1053.1000  1060.2000  1057.8000  1046.1000  1039.1000  1025.8000  1003.9000  1012.5000  1001.6000  1002.3000  1004.7000   994.5000  1005.5000  1003.1000   993.8000  1001.6000   993.8000  1010.9000  1028.9000  1027.3000  1039.8000  1025.0000   997.7000  1000.8000   971.1000   960.9000   971.9000   971.9000   964.1000   966.4000   955.5000   937.5000   926.6000   889.1000   850.0000   808.6000   782.0000   757.0000   727.3000   711.7000   674.2000   635.2000   618.0000   595.3000   566.4000   586.7000   592.2000   587.5000   594.5000   564.8000   553.1000   544.5000   523.4000   528.1000   529.7000   531.3000   525.8000   532.8000   558.6000   550.0000   539.8000   558.6000   579.7000   582.8000   625.8000   643.8000   653.1000   685.9000   683.6000   678.1000   706.3000   735.9000   783.6000   823.4000   825.8000   888.3000   910.9000   927.3000   975.0000   992.2000  1008.6000  1041.4000  1060.2000  1089.8000  1136.7000  1172.7000  1198.4000  1212.5000  1242.2000  1278.1000  1305.5000  1364.8000  1397.7000  1424.2000  1458.6000  1481.3000  1509.4000  1558.6000  1562.5000  1588.3000  1650.8000  1682.0000  1725.8000  1757.8000  1767.2000  1800.8000  1827.3000  1851.6000  1903.9000  1943.8000  1980.5000  2008.6000  2047.7000  2096.9000  2103.9000  2103.9000  2106.3000  2113.3000  2100.8000  2088.3000  2061.7000  2032.0000  1993.8000  1932.0000  1878.9000  1825.0000  1785.2000  1761.7000  1702.3000  1645.3000  1593.8000  1521.1000  1454.7000  1416.4000  1341.4000  1275.8000  1222.7000  1181.3000  1118.8000  1027.3000   907.8000   762.5000   606.3000   464.1000   321.9000   203.9000   134.4000    70.3000    26.6000     5.5000   -11.7000    -3.9000    11.7000    21.1000    -9.4000   -82.8000  -194.5000  -246.1000  -265.6000  -286.7000  -285.9000  -292.2000  -267.2000  -241.4000  -221.9000  -185.9000  -155.5000  -128.9000   -61.7000    10.9000   141.4000   289.1000   341.4000   267.2000    33.6000  -287.5000  -541.4000  -670.3000  -685.9000  -626.6000  -591.4000  -525.0000  -474.2000  -449.2000  -446.9000  -433.6000  -434.4000  -460.2000  -527.3000  -614.1000  -676.6000  -759.4000  -819.5000  -875.8000  -925.0000  -959.4000  -975.8000  -996.9000  -992.2000  -989.1000  -975.8000  -925.0000  -854.7000  -760.9000  -677.3000  -598.4000  -528.1000  -518.0000  -533.6000  -514.8000  -528.1000  -512.5000  -496.9000  -480.5000  -453.9000  -451.6000  -457.8000  -444.5000  -448.4000  -443.8000  -437.5000  -447.7000  -455.5000  -485.9000  -548.4000  -621.9000  -746.1000  -894.5000 -1093.0000 -1306.3000 -1475.0000 -1611.7000 -1661.7000 -1644.5000 -1602.3000 -1548.4000 -1481.3000 -1419.5000 -1367.2000 -1305.5000 -1260.2000 -1229.7000 -1206.3000 -1204.7000 -1185.9000 -1154.7000 -1143.0000 -1123.4000 -1085.2000 -1054.7000  -996.1000  -920.3000  -823.4000  -721.1000  -611.7000  -488.3000  -393.8000  -353.1000  -344.5000  -364.8000  -389.1000  -377.3000  -374.2000  -340.6000  -335.2000  -387.5000  -418.8000  -462.5000  -527.3000  -593.0000  -665.6000  -685.9000  -647.7000  -601.6000  -518.8000  -465.6000  -459.4000  -468.8000  -482.8000  -468.0000  -451.6000  -420.3000  -363.3000  -299.2000  -241.4000  -153.9000  -103.1000   -35.9000    45.3000    95.3000   135.9000   195.3000   232.0000   278.9000   320.3000   335.2000   357.0000   390.6000   407.8000   414.8000   378.1000   355.5000   357.0000   340.6000   329.7000   310.9000   272.7000   258.6000   215.6000   182.8000   182.8000   138.3000   118.0000   115.6000    82.0000    71.1000    49.2000    17.2000     3.9000    -7.0000   -27.3000   -28.9000   -48.4000   -62.5000   -64.1000   -95.3000  -113.3000  -136.7000  -163.3000  -193.0000  -216.4000  -240.6000  -266.4000  -312.5000  -328.9000  -375.0000  -450.8000  -478.1000  -518.8000  -542.2000  -532.0000  -580.5000  -589.1000  -598.4000  -624.2000  -619.5000  -595.3000  -628.1000  -619.5000  -592.2000  -585.9000  -549.2000  -526.6000  -509.4000  -496.1000  -488.3000  -464.8000  -441.4000  -432.0000  -423.4000  -419.5000  -424.2000  -412.5000  -444.5000  -450.0000  -454.7000  -492.2000  -488.3000  -498.4000  -515.6000  -507.8000  -521.1000  -535.2000  -538.3000  -547.7000  -532.8000  -546.9000  -557.0000  -597.7000  -666.4000  -760.2000  -857.8000  -996.1000 -1105.5000 -1228.1000 -1341.4000 -1395.3000 -1425.0000 -1451.6000 -1454.7000 -1469.5000 -1473.4000 -1449.2000 -1448.4000 -1433.6000 -1434.4000 -1443.0000 -1456.3000 -1494.5000 -1556.3000 -1594.5000 -1644.5000 -1689.8000 -1698.4000 -1714.8000 -1710.9000 -1708.6000 -1682.8000 -1638.3000 -1638.3000 -1636.7000 -1650.0000 -1689.8000 -1716.4000 -1732.0000 -1738.3000 -1734.4000 -1721.9000 -1710.9000 -1671.9000 -1645.3000 -1607.0000 -1545.3000 -1510.9000 -1470.3000 -1427.3000 -1405.5000 -1351.6000 -1314.1000 -1287.5000 -1238.3000 -1201.6000 -1137.5000 -1075.8000 -1046.9000 -1010.9000  -971.9000  -935.9000  -903.1000  -874.2000  -855.5000  -848.4000  -869.5000  -874.2000  -875.0000  -907.8000  -928.9000  -956.3000  -964.1000  -943.0000  -929.7000  -911.7000  -876.6000  -872.7000  -864.8000  -851.6000  -832.0000  -806.3000  -793.8000  -768.0000  -718.0000  -698.4000  -660.2000  -626.6000  -629.7000  -619.5000  -619.5000  -620.3000  -597.7000  -592.2000  -585.2000  -570.3000  -585.2000  -571.9000  -562.5000  -557.8000  -560.9000  -586.7000  -586.7000  -556.3000  -544.5000  -559.4000  -565.6000  -578.9000  -571.9000  -565.6000  -570.3000  -551.6000  -518.0000  -514.8000  -477.3000  -451.6000  -432.8000  -421.1000  -414.1000  -386.7000  -347.7000  -325.8000  -289.8000  -271.1000  -264.1000  -239.8000  -246.1000  -213.3000  -205.5000  -201.6000  -158.6000  -110.2000   -88.3000   -50.8000   -30.5000   -30.5000    -7.0000     9.4000    27.3000    28.9000    10.9000     7.8000    24.2000    -0.8000   -24.2000   -50.0000   -71.1000   -80.5000  -135.2000  -173.4000  -192.2000  -225.8000  -266.4000  -309.4000  -356.3000  -372.7000  -436.7000  -483.6000  -500.0000  -520.3000  -539.1000  -552.3000  -588.3000  -621.9000  -653.9000  -669.5000  -664.8000  -679.7000  -688.3000  -687.5000  -663.3000  -657.8000  -672.7000  -670.3000  -658.6000  -653.1000  -638.3000  -614.1000  -593.0000  -568.0000  -556.3000  -557.0000  -538.3000  -523.4000  -513.3000  -475.0000  -445.3000  -432.8000  -392.2000  -365.6000  -343.8000  -326.6000  -322.7000  -282.8000  -257.0000  -221.9000  -171.1000  -122.7000   -95.3000   -54.7000   -39.8000     3.9000    33.6000    42.2000    82.8000   125.8000   168.8000   215.6000   232.0000   254.7000   291.4000   319.5000   366.4000   401.6000   432.8000   471.1000   506.3000   549.2000   585.2000   596.9000   634.4000   663.3000   707.0000   755.5000   791.4000   830.5000   896.9000   936.7000   971.1000  1009.4000  1036.7000  1107.0000  1158.6000  1167.2000  1185.2000  1213.3000  1225.0000  1243.0000  1245.3000  1235.9000  1260.2000  1279.7000  1313.3000  1360.2000  1403.1000  1446.1000  1474.2000  1516.4000  1565.6000  1598.4000  1653.1000  1711.7000  1752.3000  1802.3000  1842.2000  1868.0000  1914.8000  1952.3000  2007.8000  2063.3000  2097.7000  2137.5000  2193.8000  2237.5000  2263.3000  2243.8000  2226.6000  2215.6000  2184.4000  2176.6000  2182.0000  2160.2000  2136.7000  2123.4000  2112.5000  2115.6000  2117.2000  2128.1000  2160.9000  2185.9000  2212.5000  2232.8000  2242.2000  2272.7000  2291.4000  2311.7000  2329.7000  2304.7000  2253.9000  2202.3000  2093.0000  1991.4000  1885.2000  1779.7000  1688.3000  1603.9000  1539.8000  1466.4000  1363.3000  1259.4000  1154.7000  1043.0000   946.1000   855.5000   741.4000   681.3000   585.9000   514.1000   456.3000   361.7000   292.2000   260.9000   237.5000   176.6000    41.4000  -113.3000  -229.7000  -294.5000  -323.4000  -342.2000  -351.6000  -333.6000  -304.7000  -288.3000  -253.9000  -225.8000  -207.0000  -194.5000  -198.4000  -187.5000  -162.5000  -168.0000  -131.3000  -111.7000   -89.1000   -44.5000   -39.1000   -18.0000     9.4000    36.7000    84.4000   162.5000   196.1000   228.1000   235.2000   250.8000   274.2000   270.3000   278.1000   307.0000   353.1000   424.2000   514.1000   588.3000   676.6000   755.5000   818.8000   913.3000   979.7000  1058.6000  1160.2000  1253.9000  1350.0000  1434.4000  1512.5000  1596.9000  1685.9000  1781.3000  1876.6000  1971.9000  2111.7000  2242.2000  2368.0000  2529.7000  2692.2000  2885.9000  3131.3000  3380.5000  3505.5000  3400.8000  3010.9000  2491.4000  2041.4000  1757.0000  1657.0000  1674.2000  1702.3000  1775.0000  1839.1000  1880.5000  1914.1000  1930.5000  1932.8000  1887.5000  1827.3000  1764.8000  1684.4000  1615.6000  1579.7000  1543.0000  1503.9000  1452.3000  1368.0000  1301.6000  1238.3000  1207.0000  1228.9000  1256.3000  1293.8000  1324.2000  1339.8000  1357.8000  1386.7000  1402.3000  1436.7000  1456.3000  1463.3000  1481.3000  1478.9000  1503.9000  1507.0000  1491.4000  1507.0000  1532.0000  1554.7000  1598.4000  1652.3000  1692.2000  1731.3000  1750.8000  1760.2000  1768.0000  1739.1000  1670.3000  1616.4000  1557.8000  1501.6000  1414.8000  1321.1000  1255.5000  1171.9000  1115.6000  1043.0000   968.0000   902.3000   844.5000   744.5000   642.2000   510.2000   365.6000   239.1000    90.6000    -9.4000   -50.8000   -55.5000    15.6000    71.9000   125.8000   211.7000   246.9000   278.1000   321.1000   352.3000   375.8000   417.2000   443.0000   482.8000   515.6000   541.4000   609.4000   647.7000   695.3000   708.6000   659.4000   571.9000   501.6000   458.6000   453.1000   433.6000   439.8000   463.3000   475.8000   504.7000   521.1000   526.6000   539.1000   547.7000   550.8000   570.3000   573.4000   572.7000   568.0000   563.3000   567.2000   559.4000   559.4000   546.1000   513.3000   521.9000   553.1000   535.2000   524.2000   525.8000   500.0000   521.1000   521.9000   520.3000   540.6000   521.9000   520.3000   533.6000   508.6000   475.8000   460.2000   432.0000   432.0000   401.6000   367.2000   353.9000   307.0000   257.8000   235.2000   222.7000   221.9000   178.1000   146.9000   153.1000   137.5000    98.4000    97.7000    82.0000    59.4000    21.9000   -82.8000  -189.1000  -304.7000  -407.0000  -478.1000  -530.5000  -579.7000  -614.8000  -633.6000  -672.7000  -699.2000  -721.9000  -732.0000  -755.5000  -814.1000  -846.9000  -890.6000  -925.8000  -958.6000 -1008.6000 -1050.0000 -1121.1000 -1200.8000 -1249.2000 -1305.5000 -1351.6000 -1368.0000 -1361.7000 -1348.4000 -1326.6000 -1339.1000 -1316.4000 -1297.7000 -1325.0000 -1328.1000 -1340.6000 -1358.6000 -1382.8000 -1435.9000 -1492.2000 -1536.7000 -1585.9000 -1605.5000 -1630.5000 -1669.5000 -1630.5000 -1596.9000 -1536.7000 -1445.3000 -1364.8000 -1282.8000 -1199.2000 -1149.2000 -1123.4000 -1198.4000 -1300.0000 -1396.9000 -1513.3000 -1638.3000 -1769.5000 -1915.6000 -2033.6000 -2133.6000 -2253.9000 -2346.9000 -2460.2000 -2541.4000 -2561.7000 -2564.1000 -2561.7000 -2558.6000 -2561.7000 -2550.0000 -2532.0000 -2526.6000 -2496.9000 -2481.3000 -2480.5000 -2473.4000 -2493.0000 -2482.0000 -2453.1000 -2460.9000 -2441.4000 -2425.8000 -2405.5000 -2364.1000 -2364.1000 -2346.9000 -2332.8000 -2342.2000 -2326.6000 -2311.7000 -2327.3000 -2328.9000 -2334.4000 -2302.3000 -2271.1000 -2252.3000 -2239.1000 -2212.5000 -2174.2000 -2129.7000 -2096.1000 -2081.3000 -2044.5000 -2035.2000 -2020.3000 -1982.0000 -1948.4000 -1907.8000 -1853.9000 -1832.8000 -1773.4000 -1748.4000 -1743.0000 -1721.1000 -1735.9000 -1764.8000 -1776.6000 -1791.4000 -1806.3000 -1812.5000 -1803.9000 -1780.5000 -1754.7000 -1743.0000 -1707.0000 -1684.4000 -1640.6000 -1596.9000 -1556.3000 -1512.5000 -1493.8000 -1490.6000 -1458.6000 -1456.3000 -1424.2000 -1377.3000 -1350.0000 -1327.3000 -1293.0000 -1277.3000 -1252.3000 -1236.7000 -1229.7000 -1201.6000 -1198.4000 -1180.5000 -1149.2000 -1119.5000 -1114.1000 -1103.1000 -1109.4000 -1087.5000 -1068.8000 -1060.9000 -1030.5000 -1008.6000  -985.2000  -953.1000  -940.6000  -929.7000  -919.5000  -942.2000  -924.2000  -926.6000  -921.1000  -900.8000  -889.1000  -864.1000  -843.0000  -836.7000  -797.7000  -770.3000  -743.8000  -682.0000  -635.9000  -593.0000  -559.4000  -538.3000  -508.6000  -468.8000  -446.9000  -412.5000  -381.3000  -335.9000  -310.9000  -286.7000  -250.8000  -222.7000  -199.2000  -164.1000  -128.9000   -99.2000   -50.8000   -26.6000     9.4000    53.1000    60.9000    80.5000   104.7000   101.6000   120.3000   153.1000   178.9000   214.1000   218.8000   232.8000   239.1000   259.4000   275.8000   285.9000   284.4000   297.7000   298.4000   326.6000   355.5000   350.0000   349.2000   371.1000   370.3000   396.9000   446.9000   465.6000   485.9000   506.3000   525.8000   582.8000   624.2000   662.5000   727.3000   782.8000   835.9000   865.6000   918.0000   962.5000   983.6000  1003.9000  1044.5000  1052.3000  1028.1000  1003.9000   973.4000   959.4000   935.9000   896.9000   905.5000   880.5000   848.4000   875.8000   878.9000   900.0000   907.0000   906.3000   950.0000   986.7000   973.4000   967.2000   929.7000   892.2000   838.3000   761.7000   686.7000   603.9000   519.5000   442.2000   394.5000   346.1000   329.7000   292.2000   275.8000   255.5000   246.9000   265.6000   271.1000   256.3000   283.6000   294.5000   316.4000   353.1000   370.3000   423.4000   480.5000   479.7000   517.2000   561.7000   578.1000   598.4000   621.1000   618.8000   588.3000   541.4000   514.8000   489.8000   469.5000   460.9000   442.2000   429.7000   403.9000   333.6000   280.5000   243.8000   207.8000   194.5000   196.9000   210.2000   227.3000   234.4000   252.3000   272.7000   285.2000   322.7000   363.3000   400.0000   443.0000   479.7000   500.0000   524.2000   497.7000   447.7000   346.1000   184.4000    15.6000  -107.8000  -238.3000  -302.3000  -382.0000  -443.0000  -489.1000  -548.4000  -596.1000  -640.6000  -732.0000  -788.3000  -889.8000 -1019.5000 -1103.9000 -1175.8000 -1199.2000 -1169.5000 -1129.7000 -1071.9000 -1014.8000  -946.9000  -867.2000  -796.9000  -726.6000  -636.7000  -563.3000  -476.6000  -380.5000  -283.6000  -182.0000  -101.6000   -42.2000    30.5000    69.5000    70.3000    85.9000    87.5000   128.1000   178.1000   250.0000   351.6000   478.1000   572.7000   671.1000   744.5000   821.9000   897.7000   939.1000  1001.6000  1077.3000  1141.4000  1233.6000  1312.5000  1366.4000  1426.6000  1455.5000  1469.5000  1489.8000  1493.8000  1546.1000  1610.2000  1628.9000  1697.7000  1749.2000  1774.2000  1842.2000  1868.8000  1901.6000  1951.6000  1953.1000  1964.1000  1996.1000  2024.2000  2049.2000  2082.0000  2127.3000  2184.4000  2255.5000  2321.9000  2414.8000  2448.4000  2436.7000  2314.1000  2110.2000  1910.2000  1738.3000  1634.4000  1618.0000  1599.2000  1647.7000  1715.6000  1762.5000  1828.1000  1879.7000  1926.6000  1966.4000  2001.6000  2021.1000  2069.5000  2081.3000  2107.0000  2118.8000  2134.4000  2153.9000  2146.9000  2113.3000  2103.9000  2092.2000  2079.7000  2061.7000  2044.5000  2060.2000  2043.0000  2021.9000  2020.3000  2003.1000  1975.8000  1989.1000  1976.6000  1950.0000  1971.1000  1975.8000  1995.3000  2008.6000  2017.2000  2013.3000  1982.0000  1961.7000  1911.7000  1868.8000  1827.3000  1762.5000  1691.4000  1643.8000  1568.0000  1482.8000  1445.3000  1386.7000  1314.8000  1250.0000  1180.5000  1120.3000  1058.6000   960.9000   871.9000   753.1000   605.5000   475.8000   348.4000   271.9000   225.8000   222.7000   270.3000   332.8000   375.0000   410.9000   418.8000   460.2000   480.5000   482.0000   500.8000   503.9000   484.4000   483.6000   481.3000   491.4000   493.8000   468.0000   449.2000   438.3000   424.2000   435.2000   449.2000   443.0000   457.8000   437.5000   435.2000   439.8000   408.6000   414.8000   423.4000   421.1000   423.4000   433.6000   429.7000   432.0000   421.1000   416.4000   428.1000   418.0000   428.1000   444.5000   449.2000   470.3000   450.0000   438.3000   447.7000   430.5000   421.1000   430.5000   431.3000   441.4000   450.0000   432.8000   427.3000   427.3000   420.3000   409.4000   395.3000   391.4000   378.9000   372.7000   376.6000   363.3000   352.3000   347.7000   318.0000   310.2000   317.2000   315.6000   300.8000   294.5000   268.0000   260.2000   243.8000   235.2000   239.1000   224.2000   201.6000   210.9000   196.9000   186.7000   160.2000   128.9000   125.0000   107.8000   104.7000   113.3000    93.0000    84.4000    71.9000    56.3000    57.0000    37.5000     5.5000    16.4000    26.6000    18.8000     7.0000   -15.6000   -25.8000   -26.6000   -43.0000   -42.2000   -39.8000   -49.2000   -27.3000   -22.7000   -25.0000   -32.0000   -52.3000   -57.8000   -55.5000   -55.5000   -45.3000   -37.5000   -17.2000     2.3000   -12.5000   -25.8000   -38.3000   -57.8000   -70.3000   -78.1000   -96.1000   -96.1000  -104.7000  -130.5000  -126.6000  -154.7000  -185.2000  -204.7000  -228.9000  -243.8000  -245.3000  -260.2000  -304.7000  -416.4000  -535.2000  -636.7000  -719.5000  -800.0000  -843.0000  -883.6000  -925.8000  -969.5000 -1018.0000 -1040.6000 -1081.3000 -1123.4000 -1152.3000 -1184.4000 -1212.5000 -1246.1000 -1300.0000 -1329.7000 -1368.0000 -1468.0000 -1548.4000 -1671.9000 -1776.6000 -1838.3000 -1905.5000 -1952.3000 -1985.9000 -2025.0000 -2029.7000 -2045.3000 -2069.5000 -2076.6000 -2103.1000 -2096.9000 -2107.8000 -2108.6000 -2110.2000 -2108.6000 -2113.3000 -2116.4000 -2121.9000 -2113.3000 -2084.4000 -2065.6000 -2027.3000 -1982.0000 -1960.2000 -1897.7000 -1826.6000 -1739.8000 -1625.0000 -1535.9000 -1433.6000 -1353.9000 -1332.8000 -1328.9000 -1316.4000 -1315.6000 -1289.8000 -1292.2000 -1283.6000 -1279.7000 -1323.4000 -1367.2000 -1432.8000 -1527.3000 -1610.2000 -1654.7000 -1655.5000 -1616.4000 -1594.5000 -1535.9000 -1439.8000 -1387.5000 -1323.4000 -1251.6000 -1185.2000 -1100.0000 -1027.3000  -956.3000  -864.1000  -819.5000  -764.8000  -691.4000  -628.9000  -578.1000  -528.1000  -471.9000  -381.3000  -314.1000  -265.6000  -225.8000  -216.4000  -183.6000  -150.0000  -110.9000   -48.4000     8.6000    45.3000   100.0000   132.0000   144.5000   177.3000   184.4000   205.5000   228.9000   248.4000   292.2000   308.6000   297.7000   312.5000   318.0000   335.2000   310.2000   280.5000   277.3000   268.0000   239.1000   216.4000   193.0000   182.8000   203.9000   230.5000   286.7000   353.9000   414.8000   491.4000   548.4000   528.1000   458.6000   326.6000   181.3000    93.0000    52.3000    60.2000   102.3000   128.9000   189.1000   236.7000   292.2000   389.8000   488.3000   580.5000   649.2000   541.4000   224.2000  -220.3000  -696.1000 -1030.5000 -1228.9000 -1336.7000 -1401.6000 -1467.2000 -1507.8000 -1565.6000 -1635.2000 -1711.7000 -1798.4000 -1948.4000 -2088.3000 -2219.5000 -2346.1000 -2459.4000 -2581.3000 -2696.1000 -2817.2000 -2938.3000 -3028.1000 -3093.8000 -3157.0000 -3196.1000 -3261.7000 -3310.2000 -3304.7000 -3314.1000 -3308.6000 -3257.8000 -3226.6000 -3167.2000 -3103.9000 -3046.9000 -2968.8000 -2930.5000 -2876.6000 -2796.1000 -2742.2000 -2678.9000 -2624.2000 -2554.7000 -2453.1000 -2368.0000 -2285.9000 -2204.7000 -2134.4000 -2062.5000 -1987.5000 -1909.4000 -1828.1000 -1735.9000 -1660.9000 -1583.6000 -1509.4000 -1442.2000 -1391.4000 -1378.1000 -1353.9000 -1332.8000 -1310.9000 -1267.2000 -1233.6000 -1218.0000 -1178.9000 -1173.4000 -1147.7000 -1109.4000 -1105.5000 -1071.1000 -1015.6000  -978.9000  -931.3000  -892.2000  -858.6000  -821.1000  -809.4000  -750.8000  -710.9000  -671.1000  -626.6000  -591.4000  -558.6000  -545.3000  -550.8000  -546.9000  -511.7000  -513.3000  -502.3000  -483.6000  -484.4000  -461.7000  -467.2000  -496.1000  -491.4000  -510.9000  -510.2000  -500.0000  -508.6000  -503.9000  -494.5000  -503.1000  -507.8000  -513.3000  -521.9000  -532.8000  -541.4000  -527.3000  -529.7000  -542.2000  -548.4000  -567.2000  -596.1000  -616.4000  -613.3000  -618.8000  -596.9000  -596.1000  -579.7000  -566.4000  -566.4000  -548.4000  -535.2000  -556.3000  -533.6000  -514.1000  -508.6000  -527.3000  -534.4000  -536.7000  -560.2000  -587.5000  -574.2000  -564.8000  -557.0000  -530.5000  -515.6000  -476.6000  -444.5000  -428.9000  -397.7000  -358.6000  -338.3000  -282.0000  -250.0000  -247.7000  -200.8000  -164.8000  -135.9000  -118.8000   -96.9000   -34.4000    14.8000    54.7000   118.0000   138.3000   160.2000   186.7000   202.3000   227.3000   264.1000   296.1000   325.8000   340.6000   354.7000   376.6000   375.8000   373.4000   378.1000   348.4000   345.3000   359.4000   355.5000   344.5000   317.2000   279.7000   279.7000   265.6000   250.0000   252.3000   250.0000   255.5000   280.5000   310.9000   340.6000   350.0000   371.9000   415.6000   464.8000   530.5000   604.7000   656.3000   717.2000   773.4000   813.3000   896.1000   908.6000   911.7000   902.3000   871.1000   864.1000   856.3000   846.1000   871.1000   913.3000   925.8000   976.6000  1015.6000  1055.5000  1104.7000  1153.1000  1175.8000  1196.1000  1209.4000  1231.3000  1243.0000  1268.0000  1307.0000  1315.6000  1321.1000  1343.0000  1336.7000  1355.5000  1357.8000  1343.0000  1382.8000  1401.6000  1415.6000  1418.0000  1368.8000  1329.7000  1255.5000  1131.3000  1024.2000   904.7000   800.0000   696.1000   600.0000   556.3000   513.3000   452.3000   407.8000   387.5000   374.2000   365.6000   334.4000   291.4000   264.1000   223.4000   178.1000   171.1000   124.2000   104.7000    82.0000    46.9000    35.9000     0.8000   -32.8000   -39.1000   -65.6000   -71.1000   -71.9000   -85.2000   -88.3000   -74.2000   -47.7000   -24.2000   -26.6000    -1.6000    28.9000    57.8000    96.9000   127.3000   156.3000   195.3000   218.8000   232.0000   274.2000   310.9000   361.7000   421.9000   447.7000   489.1000   576.6000   614.8000   663.3000   689.8000   721.1000   779.7000   810.2000   861.7000   900.8000   924.2000   947.7000   975.8000   996.9000  1049.2000  1074.2000  1108.6000  1172.7000  1213.3000  1269.5000  1314.8000  1340.6000  1404.7000  1472.7000  1524.2000  1610.2000  1676.6000  1725.8000  1743.8000  1673.4000  1588.3000  1502.3000  1406.3000  1388.3000  1379.7000  1402.3000  1447.7000  1463.3000  1489.1000  1509.4000  1533.6000  1560.9000  1537.5000  1541.4000  1554.7000  1545.3000  1529.7000  1547.7000  1541.4000  1533.6000  1535.2000  1525.8000  1552.3000  1577.3000  1589.8000  1617.2000  1607.0000  1614.1000  1631.3000  1615.6000  1641.4000  1654.7000  1653.9000  1682.8000  1691.4000  1700.8000  1707.0000  1702.3000  1709.4000  1736.7000  1707.8000  1718.0000  1722.7000  1721.1000  1743.8000  1718.0000  1693.8000  1691.4000  1689.8000  1680.5000  1682.0000  1685.9000  1684.4000  1684.4000  1680.5000  1673.4000  1639.1000  1636.7000  1657.0000  1655.5000  1669.5000  1649.2000  1634.4000  1644.5000  1619.5000  1587.5000  1570.3000  1558.6000  1566.4000  1576.6000  1564.1000  1558.6000  1555.5000  1529.7000  1528.1000  1503.1000  1478.9000  1474.2000  1468.8000  1478.1000  1484.4000  1458.6000  1451.6000  1434.4000  1402.3000  1346.9000  1252.3000  1208.6000  1160.9000  1102.3000  1064.1000  1021.1000   977.3000   959.4000   943.8000   944.5000   953.1000   951.6000   946.9000   970.3000   970.3000   960.9000   939.1000   921.1000   914.1000   885.9000   853.9000   836.7000   793.8000   761.7000   742.2000   696.9000   664.1000   650.8000   637.5000   635.2000   604.7000   607.0000   602.3000   585.2000   600.0000   600.0000   585.9000   594.5000   595.3000   582.8000   624.2000   635.2000   626.6000   637.5000   640.6000   668.8000   685.9000   696.9000   721.9000   735.2000   732.8000   743.8000   739.1000   745.3000   769.5000   781.3000   826.6000   842.2000   873.4000   933.6000   946.9000   910.9000   834.4000   725.0000   649.2000   597.7000   549.2000   516.4000   481.3000   447.7000   433.6000   422.7000   428.9000   437.5000   435.2000   470.3000   488.3000   463.3000   452.3000   410.2000   370.3000   342.2000   272.7000   224.2000   179.7000   134.4000    87.5000    34.4000   -35.9000   -95.3000  -151.6000  -193.0000  -218.8000  -270.3000  -336.7000  -396.9000  -508.6000  -653.1000  -796.9000  -974.2000 -1118.8000 -1219.5000 -1251.6000 -1225.8000 -1172.7000 -1109.4000 -1049.2000  -987.5000  -912.5000  -852.3000  -804.7000  -725.0000  -689.1000  -674.2000  -662.5000  -641.4000  -618.8000  -630.5000  -635.9000  -627.3000  -634.4000  -665.6000  -688.3000  -725.8000  -769.5000  -811.7000  -862.5000  -902.3000  -945.3000 -1018.0000 -1032.0000 -1067.2000 -1135.9000 -1178.1000 -1235.2000 -1282.0000 -1360.2000 -1457.0000 -1545.3000 -1656.3000 -1788.3000 -1921.9000 -2046.1000 -2146.9000 -2217.2000 -2237.5000 -2221.1000 -2213.3000 -2202.3000 -2167.2000 -2135.9000 -2111.7000 -2075.0000 -2049.2000 -2007.8000 -1964.1000 -1942.2000 -1893.8000 -1846.1000 -1825.8000 -1798.4000 -1777.3000 -1750.0000 -1718.8000 -1704.7000 -1673.4000 -1643.0000 -1625.8000 -1609.4000 -1555.5000 -1520.3000 -1493.0000 -1456.3000 -1413.3000 -1365.6000 -1363.3000 -1353.1000 -1363.3000 -1407.8000 -1425.8000 -1436.7000 -1443.0000 -1429.7000 -1437.5000 -1421.1000 -1382.0000 -1360.2000 -1324.2000 -1296.9000 -1278.1000 -1246.1000 -1225.0000 -1200.8000 -1172.7000 -1158.6000 -1124.2000 -1093.0000 -1068.0000 -1038.3000 -1016.4000  -998.4000  -980.5000  -939.1000  -887.5000  -815.6000  -772.7000  -684.4000  -574.2000  -500.0000  -449.2000  -450.8000  -518.0000  -666.4000  -878.9000 -1060.9000 -1170.3000 -1253.1000 -1274.2000 -1251.6000 -1218.0000 -1161.7000 -1122.7000 -1075.0000 -1010.2000  -981.3000  -949.2000  -921.1000  -903.9000  -883.6000  -867.2000  -854.7000  -817.2000  -802.3000  -795.3000  -751.6000  -735.9000  -724.2000  -723.4000  -731.3000  -708.6000  -703.9000  -705.5000  -693.8000  -697.7000  -715.6000  -713.3000  -736.7000  -735.2000  -742.2000  -776.6000  -763.3000  -745.3000  -753.1000  -752.3000  -771.9000  -789.1000  -805.5000  -846.1000  -914.8000  -973.4000 -1025.8000 -1066.4000 -1129.7000 -1172.7000 -1218.0000 -1292.2000 -1331.3000 -1375.0000 -1408.6000 -1406.3000 -1426.6000 -1466.4000 -1422.7000 -1423.4000 -1430.5000 -1425.8000 -1425.0000 -1404.7000 -1395.3000 -1371.1000 -1360.2000 -1337.5000 -1327.3000 -1299.2000 -1286.7000 -1262.5000 -1248.4000 -1246.1000 -1210.2000 -1194.5000 -1184.4000 -1153.1000 -1138.3000 -1123.4000 -1105.5000 -1113.3000 -1088.3000 -1046.9000 -1033.6000 -1014.8000  -982.0000  -962.5000  -946.9000  -946.1000  -928.9000  -909.4000  -893.0000  -857.8000  -832.8000  -810.9000  -789.8000  -773.4000  -767.2000  -750.8000  -758.6000  -746.9000  -713.3000  -682.8000  -653.1000  -639.1000  -635.2000  -606.3000  -606.3000  -607.0000  -577.3000  -564.8000  -558.6000  -546.1000  -519.5000  -499.2000  -498.4000  -495.3000  -485.2000  -477.3000  -464.1000  -428.9000  -418.0000  -395.3000  -388.3000  -407.0000  -383.6000  -360.2000  -384.4000  -378.1000  -361.7000  -334.4000  -314.8000  -325.8000  -323.4000  -308.6000  -308.6000  -298.4000  -295.3000  -293.0000  -273.4000  -272.7000  -239.8000  -224.2000  -239.1000  -233.6000  -239.8000  -224.2000  -196.1000  -173.4000  -153.9000  -139.8000  -137.5000  -134.4000  -118.8000  -105.5000   -98.4000   -98.4000   -81.3000   -45.3000   -42.2000   -39.8000   -27.3000   -40.6000   -25.8000   -11.7000    -3.9000    28.1000    45.3000    71.9000    90.6000    85.2000   100.0000   128.1000   127.3000   134.4000   147.7000   173.4000   194.5000   200.0000   208.6000   220.3000   227.3000   255.5000   279.7000   280.5000   313.3000   319.5000   328.9000   362.5000   381.3000   393.8000   402.3000   411.7000   460.9000   535.9000   558.6000   598.4000   629.7000   650.8000   681.3000   715.6000   742.2000   770.3000   802.3000   834.4000   860.2000   888.3000   904.7000   907.0000   918.8000   964.8000   997.7000  1043.0000  1103.1000  1130.5000  1168.0000  1203.9000  1228.1000  1291.4000  1330.5000  1363.3000  1422.7000  1457.0000  1513.3000  1535.2000  1553.9000  1574.2000  1582.8000  1610.2000  1637.5000  1660.2000  1694.5000  1721.9000  1733.6000  1756.3000  1771.9000  1773.4000  1788.3000  1802.3000  1818.8000  1847.7000  1835.9000  1843.0000  1853.9000  1804.7000  1763.3000  1713.3000  1629.7000  1574.2000  1486.7000  1404.7000  1325.0000  1259.4000  1200.0000  1139.8000  1093.0000  1053.9000  1006.3000   963.3000   925.0000   885.9000   851.6000   822.7000   786.7000   782.0000   757.0000   713.3000   694.5000   657.0000   607.8000   564.1000   488.3000   439.1000   393.8000   353.9000   343.0000   319.5000   291.4000   286.7000   273.4000   260.2000   233.6000   214.8000   218.8000   229.7000   221.9000   240.6000   258.6000   256.3000   264.8000   242.2000   257.0000   293.0000   325.0000   387.5000   435.2000   482.8000   543.0000   555.5000   543.8000   529.7000   439.1000   345.3000   262.5000   177.3000   113.3000    63.3000    25.8000    12.5000    45.3000    69.5000    96.9000   130.5000   157.8000   183.6000   187.5000   167.2000   119.5000    70.3000    61.7000    50.8000    47.7000    61.7000    53.9000    77.3000   109.4000   123.4000   164.8000   202.3000   255.5000   320.3000   366.4000   415.6000   460.2000   471.9000   496.1000   525.8000   546.9000   588.3000   619.5000   648.4000   669.5000   681.3000   707.0000   732.0000   747.7000   775.8000   806.3000   815.6000   878.9000   921.1000   943.0000   976.6000   981.3000  1013.3000  1068.8000  1078.9000  1111.7000  1152.3000  1165.6000  1168.8000  1164.1000  1153.9000  1149.2000  1168.0000  1209.4000  1236.7000  1273.4000  1297.7000  1337.5000  1369.5000  1406.3000  1414.8000  1450.0000  1485.2000  1487.5000  1535.9000  1559.4000  1574.2000  1582.8000  1600.0000  1604.7000  1605.5000  1643.0000  1676.6000  1721.1000  1735.2000  1783.6000  1820.3000  1839.8000  1868.8000  1873.4000  1900.8000  1950.0000  1975.0000  2022.7000  2053.1000  2037.5000  2060.2000  2066.4000  2082.8000  2093.8000  2107.8000  2148.4000  2214.1000  2250.0000  2295.3000  2324.2000  2349.2000  2370.3000  2419.5000  2482.8000  2543.8000  2600.0000  2651.6000  2693.0000  2688.3000  2650.8000  2576.6000  2532.0000  2493.8000  2457.0000  2430.5000  2435.2000  2424.2000  2423.4000  2412.5000  2386.7000  2390.6000  2384.4000  2362.5000  2362.5000  2351.6000  2339.1000  2331.3000  2281.3000  2210.9000  2125.8000  2019.5000  1949.2000  1890.6000  1867.2000  1866.4000  1824.2000  1695.3000  1405.5000  1038.3000   692.2000   457.0000   294.5000   188.3000    62.5000   -60.9000  -163.3000  -284.4000  -377.3000  -480.5000  -596.9000  -707.8000  -850.0000  -993.8000 -1127.3000 -1245.3000 -1322.7000 -1353.9000 -1371.1000 -1369.5000 -1369.5000 -1396.9000 -1449.2000 -1556.3000 -1678.9000 -1786.7000 -1902.3000 -1973.4000 -2035.9000 -2128.9000 -2201.6000 -2302.3000 -2445.3000 -2580.5000 -2706.3000 -2777.3000 -2829.7000 -2878.9000 -2901.6000 -2926.6000 -2953.1000 -2941.4000 -2907.8000 -2836.7000 -2701.6000 -2536.7000 -2328.9000 -2111.7000 -1925.8000 -1732.8000 -1569.5000 -1439.1000 -1322.7000 -1240.6000 -1182.8000 -1122.7000 -1061.7000  -971.1000  -878.9000  -817.2000  -753.9000  -723.4000  -698.4000  -675.8000  -653.1000  -615.6000  -557.8000  -509.4000  -422.7000  -307.8000  -218.8000  -100.8000    28.1000   139.8000   247.7000   288.3000   253.1000   182.0000    98.4000    39.8000     5.5000    -6.3000    43.0000   107.8000   179.7000   246.9000   321.1000   410.9000   472.7000   538.3000   616.4000   665.6000   682.0000   671.1000   595.3000   494.5000   401.6000   280.5000   182.0000   125.8000    94.5000   106.3000   144.5000   160.9000   193.8000   193.8000   211.7000   211.7000   199.2000   190.6000   176.6000   169.5000   185.9000   182.8000   169.5000   177.3000   144.5000   137.5000   139.8000   134.4000   141.4000   147.7000   126.6000   126.6000   125.8000   115.6000    89.1000    55.5000    56.3000    57.8000    55.5000    60.9000    54.7000    25.0000    15.6000   -13.3000   -15.6000     2.3000   -14.1000   -13.3000   -12.5000   -15.6000   -15.6000   -39.8000   -66.4000   -56.3000   -71.9000   -54.7000   -30.5000   -26.6000    -6.3000   -25.0000   -35.9000   -37.5000   -57.0000   -68.0000   -60.9000   -78.1000   -92.2000   -92.2000  -112.5000  -138.3000  -159.4000  -175.8000  -204.7000  -229.7000  -232.8000  -239.8000  -276.6000  -307.0000  -346.9000  -414.8000  -477.3000  -564.1000  -661.7000  -768.8000  -883.6000  -984.4000 -1059.4000 -1099.2000 -1124.2000 -1111.7000 -1094.5000 -1085.2000 -1064.8000 -1037.5000 -1009.4000  -994.5000  -974.2000  -957.8000  -968.8000  -954.7000  -934.4000  -923.4000  -903.1000  -912.5000  -903.9000  -866.4000  -869.5000  -875.0000  -865.6000  -863.3000  -838.3000  -825.0000  -815.6000  -792.2000  -799.2000  -808.6000  -808.6000  -807.0000  -822.7000  -836.7000  -843.0000  -845.3000  -841.4000  -838.3000  -831.3000  -848.4000  -859.4000  -874.2000  -877.3000  -865.6000  -862.5000  -875.0000  -856.3000  -862.5000  -880.5000  -881.3000  -885.9000  -903.9000  -907.8000  -911.7000  -903.1000  -903.1000  -918.0000  -927.3000  -951.6000  -962.5000  -975.0000  -983.6000  -980.5000  -975.8000 -1019.5000  -993.8000  -994.5000 -1014.1000 -1014.8000 -1025.0000 -1007.0000  -986.7000  -982.8000  -975.0000  -960.2000  -977.3000  -980.5000  -991.4000  -997.7000  -988.3000  -996.9000  -970.3000  -960.2000  -964.1000  -961.7000  -958.6000  -970.3000  -964.1000  -962.5000  -969.5000  -948.4000  -953.9000  -952.3000  -942.2000  -943.0000  -954.7000  -958.6000  -968.8000  -951.6000  -948.4000  -925.8000  -929.7000  -949.2000  -904.7000  -908.6000  -928.1000  -918.8000  -925.0000  -908.6000  -884.4000  -872.7000  -868.0000  -871.9000  -874.2000  -871.1000  -852.3000  -868.0000  -873.4000  -884.4000  -862.5000  -846.1000  -844.5000  -843.8000  -841.4000  -860.9000  -860.9000  -844.5000  -837.5000  -817.2000  -834.4000  -825.8000  -808.6000  -814.8000  -818.8000  -790.6000  -798.4000  -782.8000  -773.4000  -758.6000  -746.1000  -754.7000  -765.6000  -782.0000  -801.6000  -819.5000  -837.5000  -852.3000  -832.8000  -852.3000  -852.3000  -836.7000  -868.0000  -878.1000  -875.0000  -875.0000  -858.6000  -846.1000  -832.0000  -814.8000  -824.2000  -835.2000  -820.3000  -811.7000  -808.6000  -810.9000  -804.7000  -781.3000  -764.8000  -757.0000  -746.9000  -769.5000  -774.2000  -755.5000  -749.2000  -720.3000  -719.5000  -721.9000  -696.1000  -692.2000  -700.0000  -696.9000  -700.8000  -683.6000  -680.5000  -675.8000  -643.0000  -631.3000  -637.5000  -618.0000  -614.8000  -608.6000  -613.3000  -619.5000  -603.9000  -603.1000  -596.9000  -559.4000  -561.7000  -582.8000  -582.8000  -580.5000  -557.0000  -539.8000  -539.8000  -518.8000  -496.1000  -507.0000  -503.9000  -509.4000  -509.4000  -501.6000  -507.8000  -486.7000  -457.0000  -449.2000  -437.5000  -436.7000  -443.8000  -438.3000  -432.8000  -425.0000  -422.7000  -414.8000  -398.4000  -360.2000  -345.3000  -346.1000  -345.3000  -342.2000  -310.9000  -294.5000  -293.8000  -275.8000  -260.9000  -251.6000  -241.4000  -252.3000  -231.3000  -206.3000  -184.4000  -154.7000  -158.6000  -155.5000  -134.4000  -128.9000  -142.2000  -114.8000   -96.1000   -63.3000   -39.1000   -21.9000   -17.2000   -10.9000     9.4000    33.6000    12.5000    31.3000    36.7000    46.1000    70.3000    75.8000    84.4000    85.9000    81.3000    91.4000   105.5000   109.4000   144.5000   156.3000   157.8000   181.3000   171.9000   197.7000   201.6000   185.9000   198.4000   218.8000   243.0000   263.3000   271.9000   268.8000   278.1000   281.3000   289.1000   287.5000   296.9000   314.1000   321.9000   338.3000   361.7000   364.8000   385.9000   382.0000   361.7000   390.6000   416.4000   416.4000   446.1000   457.0000   442.2000   457.0000   457.8000   478.9000   507.0000   521.1000   529.7000   533.6000   531.3000   540.6000   534.4000   546.1000   565.6000   581.3000   596.1000   625.0000   617.2000   621.9000   625.8000   633.6000   638.3000   632.0000   649.2000   682.0000   684.4000   689.1000   699.2000   694.5000   718.0000   718.0000   721.1000   742.2000   768.8000   778.1000   802.3000   803.1000   814.8000   814.8000   818.8000   825.8000   826.6000   841.4000   872.7000   885.2000   907.8000   929.7000   916.4000   932.0000   948.4000   955.5000   984.4000  1003.1000   999.2000  1038.3000  1050.0000  1054.7000  1046.9000  1057.8000  1072.7000  1078.1000  1100.8000  1121.1000  1121.1000  1116.4000  1124.2000  1118.8000  1121.1000  1115.6000  1101.6000  1095.3000  1089.1000  1085.9000  1093.8000  1047.7000  1016.4000  1014.1000  1002.3000  1012.5000  1009.4000   998.4000   991.4000   980.5000   961.7000   989.1000   974.2000   958.6000   956.3000   954.7000   976.6000   994.5000   981.3000   977.3000   962.5000   943.8000   964.1000   960.9000   982.8000   971.1000   968.8000   999.2000   992.2000   983.6000   976.6000   965.6000   957.8000   982.8000   992.2000   993.8000  1021.9000  1018.8000  1042.2000  1043.8000  1026.6000  1034.4000  1032.0000  1041.4000  1035.9000  1031.3000  1030.5000  1005.5000   982.0000  1001.6000   978.9000   971.1000   981.3000   955.5000   947.7000   929.7000   875.8000   860.2000   839.8000   808.6000   816.4000   791.4000   788.3000   795.3000   751.6000   727.3000   711.7000   694.5000   691.4000   678.9000   654.7000   637.5000   649.2000   656.3000   663.3000   660.9000   642.2000   618.0000   606.3000   598.4000   581.3000   595.3000   610.9000   593.8000   594.5000   610.2000   602.3000   618.8000   646.9000   648.4000   646.9000   653.9000   657.0000   666.4000   659.4000   666.4000   678.9000   693.8000   723.4000   747.7000   776.6000   816.4000   828.9000   850.0000   885.2000   901.6000   932.0000   947.7000   975.8000  1022.7000  1035.2000  1040.6000  1073.4000  1053.9000  1064.8000  1078.1000  1088.3000  1110.9000  1104.7000  1089.8000  1094.5000  1103.1000  1118.0000  1121.1000  1146.1000  1175.8000  1195.3000  1211.7000  1221.1000  1195.3000  1177.3000  1166.4000  1126.6000  1093.0000  1073.4000  1019.5000   959.4000   910.2000   846.9000   818.0000   760.9000   714.8000   703.9000   683.6000   666.4000   666.4000   648.4000   635.2000   610.9000   610.9000   624.2000   625.8000   628.9000   642.2000   643.0000   643.0000   628.1000   610.9000   608.6000   613.3000   604.7000   603.1000   580.5000   551.6000   510.2000   457.8000   421.1000   399.2000   350.0000   332.8000   339.1000   342.2000   351.6000   340.6000   343.8000   356.3000   360.2000   357.8000   384.4000   417.2000   428.9000   440.6000   464.1000   453.1000   430.5000   423.4000   428.9000   402.3000   398.4000   383.6000   343.0000   307.0000   259.4000   196.9000   144.5000    76.6000    24.2000   -16.4000   -63.3000   -76.6000   -96.9000  -124.2000  -159.4000  -214.1000  -278.1000  -353.9000  -459.4000  -543.0000  -629.7000  -721.1000  -787.5000  -871.1000  -970.3000 -1069.5000 -1197.7000 -1292.2000 -1316.4000 -1331.3000 -1298.4000 -1280.5000 -1264.1000 -1209.4000 -1191.4000 -1193.8000 -1168.8000 -1160.9000 -1161.7000 -1156.3000 -1168.0000 -1174.2000 -1197.7000 -1218.8000 -1224.2000 -1210.2000 -1177.3000 -1145.3000 -1119.5000 -1068.8000 -1031.3000 -1034.4000 -1024.2000 -1051.6000 -1102.3000 -1109.4000 -1125.0000 -1115.6000 -1112.5000 -1134.4000 -1110.9000 -1090.6000 -1076.6000 -1053.9000 -1041.4000 -1003.1000  -963.3000  -943.0000  -909.4000  -902.3000  -900.0000  -877.3000  -849.2000  -824.2000  -788.3000  -758.6000  -736.7000  -689.1000  -653.1000  -634.4000  -602.3000  -574.2000  -509.4000  -432.8000  -347.7000  -238.3000  -164.8000  -130.5000  -165.6000  -321.9000  -532.8000  -778.9000  -968.8000 -1068.8000 -1089.8000 -1078.9000 -1045.3000 -1020.3000  -981.3000  -928.9000  -903.1000  -850.8000  -807.8000  -782.0000  -763.3000  -731.3000  -711.7000  -693.8000  -700.0000  -684.4000  -660.2000  -662.5000  -639.8000  -616.4000  -603.9000  -590.6000  -589.1000  -594.5000  -578.9000  -588.3000  -568.0000  -539.8000  -519.5000  -490.6000  -491.4000  -480.5000  -460.2000  -449.2000  -443.8000  -423.4000  -407.8000  -382.8000  -379.7000  -355.5000  -324.2000  -339.8000  -353.9000  -339.8000  -330.5000  -334.4000  -322.7000  -354.7000  -352.3000  -364.1000  -393.8000  -403.1000  -413.3000  -437.5000  -450.0000  -457.0000  -461.7000  -465.6000  -498.4000  -510.2000  -538.3000  -549.2000  -558.6000  -597.7000  -610.2000  -622.7000  -660.9000  -662.5000  -675.0000  -717.2000  -741.4000  -753.9000  -780.5000  -796.1000  -846.9000  -936.7000 -1060.9000 -1212.5000 -1327.3000 -1423.4000 -1504.7000 -1578.1000 -1638.3000 -1681.3000 -1705.5000 -1757.0000 -1803.1000 -1835.9000 -1889.1000 -1925.0000 -1950.0000 -1964.8000 -1985.9000 -2010.2000 -2039.8000 -2055.5000 -2080.5000 -2110.2000 -2142.2000 -2178.1000 -2164.8000 -2160.9000 -2157.8000 -2165.6000 -2164.8000 -2159.4000 -2168.8000 -2192.2000 -2178.1000 -2154.7000 -2146.1000 -2120.3000 -2125.8000 -2126.6000 -2118.8000 -2138.3000 -2136.7000 -2128.1000 -2121.9000 -2093.0000 -2067.2000 -2050.0000 -2006.3000 -1971.1000 -1968.0000 -1941.4000 -1919.5000 -1880.5000 -1850.0000 -1841.4000 -1828.1000 -1812.5000 -1792.2000 -1774.2000 -1782.0000 -1766.4000 -1722.7000 -1702.3000 -1659.4000 -1629.7000 -1609.4000 -1577.3000 -1575.8000 -1553.9000 -1528.1000 -1490.6000 -1451.6000 -1403.1000 -1360.2000 -1330.5000 -1310.2000 -1285.2000 -1241.4000 -1227.3000 -1203.9000 -1156.3000 -1131.3000 -1111.7000 -1071.1000 -1045.3000 -1021.9000 -1021.1000 -1032.0000 -1011.7000 -1009.4000  -991.4000  -982.8000 -1010.2000 -1017.2000 -1033.6000 -1046.9000 -1028.1000 -1050.8000 -1060.2000 -1044.5000 -1035.2000 -1012.5000  -987.5000  -977.3000  -954.7000  -950.0000  -936.7000  -890.6000  -857.0000  -818.8000  -769.5000  -757.0000  -733.6000  -704.7000  -664.8000  -635.9000  -620.3000  -575.8000  -525.0000  -495.3000  -432.0000  -375.0000  -349.2000  -342.2000  -398.4000  -509.4000  -632.0000  -703.9000  -736.7000  -732.0000  -710.9000  -667.2000  -622.7000  -604.7000  -567.2000  -535.9000  -500.8000  -464.8000  -446.9000  -393.8000  -354.7000  -332.8000  -290.6000  -257.0000  -227.3000  -174.2000  -135.9000   -99.2000   -71.1000   -40.6000    -4.7000    46.1000    81.3000   107.0000   145.3000   184.4000   235.2000   268.0000   289.1000   314.8000   342.2000   397.7000   431.3000   450.0000   485.9000   535.2000   547.7000   584.4000   596.9000   604.7000   639.1000   676.6000   712.5000   747.7000   791.4000   810.9000   826.6000   864.1000   891.4000   904.7000   933.6000   963.3000   968.8000  1003.9000  1043.8000  1057.8000  1075.0000  1074.2000  1089.1000  1141.4000  1164.8000  1196.1000  1243.0000  1258.6000  1286.7000  1317.2000  1337.5000  1380.5000  1383.6000  1399.2000  1436.7000  1460.9000  1496.1000  1507.0000  1518.8000  1545.3000  1573.4000  1590.6000  1605.5000  1615.6000  1643.0000  1685.2000  1708.6000  1739.8000  1765.6000  1777.3000  1829.7000  1840.6000  1835.2000  1814.8000  1747.7000  1641.4000  1532.0000  1401.6000  1298.4000  1213.3000  1143.8000  1128.1000  1116.4000  1132.0000  1156.3000  1158.6000  1152.3000  1150.8000  1135.9000  1121.9000  1077.3000   993.8000   940.6000   904.7000   869.5000   834.4000   800.0000   798.4000   779.7000   772.7000   800.0000   812.5000   815.6000   814.1000   806.3000   830.5000   860.2000   853.9000   883.6000   908.6000   925.0000   946.9000   964.8000   984.4000  1019.5000  1038.3000  1071.9000  1107.0000  1134.4000  1192.2000  1233.6000  1265.6000  1303.9000  1327.3000  1370.3000  1428.1000  1450.8000  1485.2000  1550.0000  1588.3000  1616.4000  1614.8000  1607.0000  1597.7000  1571.9000  1560.2000  1589.8000  1593.8000  1628.1000  1661.7000  1683.6000  1728.1000  1771.1000  1800.0000  1841.4000  1869.5000  1922.7000  1987.5000  2007.8000  2050.8000  2075.0000  2101.6000  2159.4000  2203.1000  2228.1000  2268.0000  2296.1000  2363.3000  2425.0000  2426.6000  2460.9000  2481.3000  2493.8000  2517.2000  2525.0000  2528.9000  2552.3000  2563.3000  2580.5000  2588.3000  2601.6000  2621.1000  2599.2000  2596.1000  2620.3000  2621.9000  2635.2000  2644.5000  2608.6000  2541.4000  2468.8000  2374.2000  2306.3000  2243.0000  2215.6000  2197.7000  2170.3000  2128.9000  2110.2000  2067.2000  2028.1000  2000.8000  1949.2000  1906.3000  1843.8000  1764.8000  1704.7000  1614.8000  1509.4000  1343.8000  1166.4000   996.1000   848.4000   714.1000   607.0000   513.3000   467.2000   436.7000   393.8000   389.8000   353.1000   304.7000   268.8000   227.3000   178.1000   166.4000   159.4000   153.1000   157.8000   128.9000    68.0000   -25.8000   -86.7000   -95.3000   -80.5000   -30.5000    63.3000   153.9000   258.6000   354.7000   454.7000   578.1000   660.2000   743.8000   820.3000   860.2000   903.9000   937.5000   939.8000   926.6000   884.4000   810.2000   736.7000   640.6000   568.8000   550.0000   546.9000   564.8000   609.4000   644.5000   701.6000   746.1000   775.8000   832.0000   846.9000   859.4000   860.2000   885.2000   945.3000   997.7000  1032.8000  1098.4000  1170.3000  1249.2000  1322.7000  1311.7000  1213.3000  1085.9000   929.7000   796.1000   685.2000   625.8000   610.2000   608.6000   627.3000   639.8000   640.6000   660.2000   668.0000   657.8000   697.7000   712.5000   725.0000   738.3000   728.9000   723.4000   725.8000   705.5000   710.2000   686.7000   657.8000   654.7000   646.1000   618.0000   610.2000   587.5000   560.2000   543.0000   526.6000   531.3000   535.2000   529.7000   525.8000   544.5000   540.6000   533.6000   507.8000   478.9000   455.5000   417.2000   396.1000   358.6000   337.5000   311.7000   269.5000   223.4000   216.4000   193.8000   192.2000   196.1000   200.0000   196.9000   200.8000   175.8000   147.7000   127.3000    91.4000    57.0000    11.7000   -24.2000   -83.6000  -156.3000  -214.1000  -253.1000  -309.4000  -368.8000  -439.1000  -479.7000  -516.4000  -564.8000  -617.2000  -707.0000  -848.4000 -1020.3000 -1184.4000 -1322.7000 -1404.7000 -1437.5000 -1418.0000 -1353.1000 -1260.9000 -1181.3000 -1087.5000 -1035.9000  -961.7000  -888.3000  -824.2000  -777.3000  -762.5000  -718.0000  -689.1000  -674.2000  -636.7000  -606.3000  -579.7000  -536.7000  -540.6000  -488.3000  -439.1000  -429.7000  -399.2000  -344.5000  -321.9000  -280.5000  -238.3000  -214.8000  -158.6000  -128.1000  -118.8000   -94.5000   -68.0000   -39.1000   -13.3000    12.5000    42.2000    39.8000    78.9000   117.2000   100.0000   106.3000   138.3000   151.6000   195.3000   213.3000   239.8000   278.9000   293.8000   307.0000   314.8000   314.8000   338.3000   342.2000   357.0000   396.9000   390.6000   387.5000   396.1000   388.3000   390.6000   404.7000   415.6000   419.5000   446.1000   447.7000   465.6000   453.9000   446.1000   464.8000   462.5000   465.6000   479.7000   484.4000   466.4000   435.9000   410.9000   416.4000   400.8000   371.9000   375.0000   394.5000   403.9000   428.1000   455.5000   478.9000   480.5000   481.3000   518.0000   528.9000   575.0000   627.3000   697.7000   807.0000   869.5000   774.2000   550.8000   303.1000   124.2000    48.4000    -0.8000   -24.2000   -74.2000  -121.1000  -146.1000  -169.5000  -202.3000  -227.3000  -277.3000  -353.1000  -453.1000  -594.5000  -711.7000  -807.0000  -878.1000  -929.7000  -990.6000 -1050.8000 -1089.8000 -1123.4000 -1129.7000 -1156.3000 -1181.3000 -1157.0000 -1128.9000 -1094.5000 -1032.0000 -1001.6000  -999.2000 -1028.9000 -1157.0000 -1326.6000 -1502.3000 -1697.7000 -1859.4000 -1950.0000 -1993.8000 -1973.4000 -1940.6000 -1914.1000 -1889.8000 -1887.5000 -1865.6000 -1844.5000 -1846.1000 -1817.2000 -1819.5000 -1818.0000 -1805.5000 -1849.2000 -1893.0000 -1944.5000 -2003.1000 -2051.6000 -2096.9000 -2150.0000 -2182.8000 -2211.7000 -2243.8000 -2270.3000 -2303.9000 -2323.4000 -2338.3000 -2372.7000 -2382.8000 -2378.1000 -2389.8000 -2400.0000 -2393.8000 -2379.7000 -2348.4000 -2359.4000 -2339.1000 -2298.4000 -2284.4000 -2250.0000 -2224.2000 -2203.1000 -2150.0000 -2143.0000 -2130.5000 -2096.1000 -2075.0000 -2060.2000 -2034.4000 -2001.6000 -1966.4000 -1952.3000 -1932.0000 -1907.0000 