  -192.2000  -193.0000  -196.9000  -203.9000  -208.6000  -212.5000  -218.0000  -221.9000  -222.7000  -225.0000  -229.7000  -231.3000  -232.8000  -239.1000  -246.1000  -247.7000  -245.3000  -249.2000  -249.2000  -250.8000  -253.1000  -257.0000  -257.8000  -258.6000  -257.8000  -259.4000  -259.4000  -258.6000  -253.9000  -255.5000  -253.1000  -254.7000  -257.8000  -253.9000  -253.9000  -254.7000  -249.2000  -244.5000  -243.0000  -245.3000  -246.1000  -240.6000  -239.1000  -233.6000  -232.0000  -228.9000  -229.7000  -228.9000  -226.6000  -226.6000  -225.0000  -219.5000  -216.4000  -213.3000  -210.2000  -207.8000  -205.5000  -203.1000  -204.7000  -201.6000  -199.2000  -199.2000  -196.9000  -193.0000  -189.8000  -189.1000  -186.7000  -179.7000  -179.7000  -176.6000  -171.9000  -170.3000  -168.8000  -166.4000  -165.6000  -164.1000  -160.2000  -154.7000  -150.0000  -146.9000  -139.8000  -135.9000  -136.7000  -135.9000  -133.6000  -128.1000  -125.0000  -123.4000  -120.3000  -118.8000  -112.5000  -107.8000  -105.5000  -100.0000   -93.0000   -89.8000   -89.8000   -85.2000   -82.0000   -79.7000   -75.8000   -71.1000   -66.4000   -62.5000   -58.6000   -57.0000   -54.7000   -51.6000   -44.5000   -41.4000   -37.5000   -31.3000   -27.3000   -22.7000   -18.0000   -15.6000   -10.2000    -4.7000     1.6000     5.5000     7.0000    10.9000    15.6000    21.9000    30.5000    33.6000    38.3000    42.2000    50.8000    53.9000    57.0000    61.7000    68.0000    68.8000    68.8000    74.2000    78.9000    81.3000    85.9000    86.7000    89.8000    92.2000    94.5000    97.7000    97.7000   100.8000   104.7000   106.3000   106.3000   106.3000   107.0000   105.5000   107.8000   108.6000   113.3000   114.8000   114.8000   121.1000   128.1000   129.7000   135.2000   139.1000   146.1000   149.2000   155.5000   163.3000   166.4000   172.7000   180.5000   185.9000   189.8000   195.3000   198.4000   204.7000   206.3000   205.5000   207.0000   207.0000   205.5000   203.9000   202.3000   198.4000   196.1000   194.5000   192.2000   187.5000   178.1000   171.1000   167.2000   161.7000   150.8000   144.5000   139.8000   128.9000   119.5000   113.3000   104.7000    94.5000    84.4000    71.1000    60.2000    56.3000    45.3000    34.4000    25.0000    14.1000     5.5000    -3.1000   -10.9000   -18.8000   -29.7000   -38.3000   -37.5000   -46.1000   -51.6000   -60.2000   -63.3000   -65.6000   -69.5000   -71.1000   -72.7000   -76.6000   -78.9000   -82.0000   -84.4000   -83.6000   -86.7000   -84.4000   -89.8000   -88.3000   -85.2000   -87.5000   -87.5000   -84.4000   -83.6000   -85.9000   -85.2000   -82.8000   -78.9000   -77.3000   -73.4000   -71.1000   -70.3000   -71.9000   -68.8000   -64.8000   -61.7000   -57.8000   -57.0000   -54.7000   -50.8000   -50.0000   -47.7000   -46.1000   -43.0000   -39.8000   -34.4000   -30.5000   -27.3000   -23.4000   -21.1000   -17.2000   -14.1000   -10.9000    -8.6000    -5.5000    -3.9000     0.8000     3.1000     7.0000     9.4000    15.6000    20.3000    23.4000    29.7000    32.8000    33.6000    34.4000    38.3000    42.2000    43.0000    43.8000    46.1000    49.2000    49.2000    52.3000    60.2000    59.4000    62.5000    61.7000    64.8000    67.2000    67.2000    66.4000    70.3000    75.8000    75.0000    73.4000    74.2000    75.8000    78.1000    80.5000    82.8000    83.6000    82.0000    82.0000    87.5000    88.3000    85.9000    83.6000    85.2000    84.4000    83.6000    85.9000    86.7000    85.9000    85.2000    80.5000    83.6000    83.6000    82.8000    83.6000    85.2000    85.2000    82.8000    82.0000    85.2000    78.9000    78.1000    78.9000    77.3000    76.6000    73.4000    71.9000    70.3000    68.0000    65.6000    66.4000    68.0000    61.7000    62.5000    65.6000    64.8000    62.5000    58.6000    53.1000    55.5000    57.0000    54.7000    54.7000    54.7000    50.8000    50.0000    51.6000    52.3000    50.0000    45.3000    43.8000    42.2000    44.5000    40.6000    39.8000    35.2000    31.3000    30.5000    33.6000    30.5000    26.6000    22.7000    25.0000    25.8000    20.3000    21.1000    19.5000    21.1000    21.1000    17.2000    20.3000    18.8000    17.2000    14.8000    14.1000    14.8000    13.3000     9.4000     8.6000     8.6000     7.8000     3.1000     0.8000    -2.3000    -3.1000    -3.1000    -2.3000    -4.7000    -7.8000    -7.0000    -7.0000    -8.6000    -8.6000   -10.2000    -7.8000   -11.7000   -14.1000   -18.0000   -18.0000   -18.0000   -17.2000   -18.0000   -18.8000   -20.3000   -21.1000   -22.7000   -21.1000   -19.5000   -20.3000   -25.0000   -25.8000   -21.9000   -22.7000   -25.0000   -28.9000   -28.1000   -28.1000   -27.3000   -29.7000   -29.7000   -33.6000   -36.7000   -37.5000   -35.9000   -32.8000   -33.6000   -35.2000   -34.4000   -36.7000   -41.4000   -39.8000   -37.5000   -44.5000   -46.1000   -43.8000   -46.1000   -48.4000   -48.4000   -50.8000   -53.9000   -57.8000   -57.8000   -54.7000   -54.7000   -54.7000   -54.7000   -56.3000   -64.1000   -64.8000   -68.8000   -72.7000   -75.8000   -77.3000   -77.3000   -76.6000   -78.1000   -78.1000   -81.3000   -85.9000   -87.5000   -87.5000   -92.2000   -93.8000   -96.1000   -99.2000  -101.6000  -103.9000  -107.0000  -107.0000  -113.3000  -114.8000  -113.3000  -112.5000  -117.2000  -119.5000  -122.7000  -125.0000  -125.0000  -126.6000  -128.9000  -129.7000  -132.8000  -134.4000  -132.8000  -131.3000  -129.7000  -125.8000  -124.2000  -116.4000  -105.5000   -93.8000   -78.9000   -59.4000   -40.6000   -19.5000    -3.1000    21.1000    45.3000    64.1000    82.0000   100.0000   118.8000   132.8000   148.4000   161.7000   171.1000   180.5000   188.3000   191.4000   190.6000   186.7000   175.8000   160.2000   135.9000   110.9000    82.0000    45.3000     5.5000   -36.7000   -89.8000  -146.9000  -207.8000  -271.1000  -334.4000  -400.8000  -468.8000  -534.4000  -599.2000  -652.3000  -703.1000  -746.1000  -780.5000  -809.4000  -830.5000  -852.3000  -871.1000  -885.9000  -902.3000  -909.4000  -918.8000  -923.4000  -925.0000  -925.0000  -920.3000  -915.6000  -911.7000  -904.7000  -891.4000  -878.1000  -862.5000  -851.6000  -835.2000  -819.5000  -800.8000  -780.5000  -761.7000  -743.8000  -723.4000  -702.3000  -682.8000  -664.1000  -643.8000  -622.7000  -599.2000  -578.1000  -556.3000  -535.2000  -514.8000  -493.8000  -471.1000  -446.9000  -426.6000  -406.3000  -382.0000  -362.5000  -346.9000  -329.7000  -311.7000  -296.1000  -277.3000  -257.0000  -239.8000  -222.7000  -207.0000  -194.5000  -177.3000  -164.1000  -150.8000  -139.1000  -129.7000  -118.0000  -108.6000   -99.2000   -88.3000   -82.8000   -75.0000   -68.8000   -53.9000   -45.3000   -40.6000   -31.3000   -22.7000   -18.0000   -14.1000    -7.8000    -3.9000     2.3000     8.6000    14.8000    17.2000    17.2000    18.0000    24.2000    32.0000    39.1000    38.3000    40.6000    43.0000    48.4000    50.8000    53.1000    55.5000    54.7000    56.3000    58.6000    60.9000    60.9000    61.7000    68.8000    70.3000    71.1000    72.7000    75.0000    75.8000    75.8000    78.9000    81.3000    82.0000    81.3000    77.3000    76.6000    75.8000    76.6000    78.1000    74.2000    71.9000    74.2000    74.2000    74.2000    70.3000    72.7000    68.0000    65.6000    68.0000    66.4000    66.4000    65.6000    66.4000    65.6000    64.1000    66.4000    68.0000    69.5000    68.0000    68.8000    76.6000    81.3000    78.9000    83.6000    82.8000    82.8000    85.2000    89.8000    91.4000    93.8000    97.7000   101.6000   106.3000   106.3000   107.8000   112.5000   117.2000   118.8000   124.2000   129.7000   132.8000   132.8000   134.4000   137.5000   141.4000   146.9000   149.2000   152.3000   152.3000   157.0000   163.3000   168.0000   168.8000   171.9000   179.7000   182.8000   184.4000   189.1000   187.5000   195.3000   201.6000   203.9000   206.3000   211.7000   211.7000   212.5000   215.6000   215.6000   217.2000   221.1000   223.4000   223.4000   222.7000   226.6000   229.7000   230.5000   231.3000   235.9000   240.6000   240.6000   241.4000   240.6000   240.6000   238.3000   236.7000   239.1000   239.8000   235.2000   235.2000   231.3000   228.9000   225.8000   225.0000   222.7000   221.1000   216.4000   213.3000   212.5000   207.0000   203.9000   200.8000   199.2000   196.9000   192.2000   188.3000   182.0000   176.6000   170.3000   166.4000   163.3000   154.7000   148.4000   140.6000   134.4000   127.3000   121.9000   114.8000   110.2000   103.9000    97.7000    90.6000    83.6000    78.9000    74.2000    68.8000    60.2000    53.9000    46.9000    39.8000    32.0000    26.6000    21.1000    17.2000    10.2000     2.3000    -5.5000   -12.5000   -19.5000   -23.4000   -29.7000   -36.7000   -43.0000   -46.9000   -53.9000   -60.2000   -68.8000   -73.4000   -78.1000   -88.3000   -93.0000  -100.0000  -107.0000  -114.1000  -118.8000  -125.8000  -136.7000  -142.2000  -145.3000  -153.1000  -160.9000  -162.5000  -168.0000  -171.1000  -178.9000  -185.2000  -191.4000  -196.1000  -201.6000  -207.0000  -215.6000  -220.3000  -224.2000  -229.7000  -235.2000  -241.4000  -245.3000  -249.2000  -250.0000  -253.1000  -257.0000  -260.9000  -264.1000  -269.5000  -275.0000  -274.2000  -275.8000  -275.8000  -278.9000  -281.3000  -280.5000  -282.8000  -284.4000  -284.4000  -285.2000  -285.9000  -285.9000  -287.5000  -286.7000  -285.2000  -285.2000  -285.2000  -289.1000  -284.4000  -281.3000  -280.5000  -278.1000  -275.0000  -276.6000  -273.4000  -268.0000  -268.0000  -270.3000  -268.8000  -264.1000  -260.9000  -263.3000  -262.5000  -255.5000  -253.1000  -252.3000  -250.0000  -243.0000  -239.1000  -236.7000  -233.6000  -232.0000  -230.5000  -225.0000  -221.1000  -214.1000  -211.7000  -207.8000  -207.8000  -204.7000  -202.3000  -196.1000  -187.5000  -184.4000  -179.7000  -175.8000  -172.7000  -168.0000  -160.9000  -152.3000  -146.1000  -143.8000  -139.8000  -137.5000  -135.2000  -129.7000  -124.2000  -118.0000  -111.7000  -110.2000  -107.0000  -100.8000   -91.4000   -87.5000   -85.9000   -82.0000   -82.8000   -82.0000   -77.3000   -70.3000   -68.0000   -65.6000   -64.1000   -58.6000   -56.3000   -52.3000   -47.7000   -43.0000   -41.4000   -39.1000   -37.5000   -36.7000   -33.6000   -30.5000   -28.1000   -27.3000   -28.1000   -24.2000   -19.5000   -17.2000   -11.7000   -12.5000   -14.1000   -13.3000   -10.9000   -10.2000    -7.0000    -4.7000    -3.9000    -3.9000     0.8000     3.9000     7.8000     7.0000     9.4000     7.8000     8.6000     8.6000     7.8000     7.8000    10.9000    11.7000    15.6000    16.4000    15.6000    20.3000    21.1000    17.2000    18.8000    25.0000    23.4000    24.2000    26.6000    25.8000    28.9000    30.5000    28.9000    29.7000    31.3000    32.0000    32.8000    35.9000    33.6000    37.5000    38.3000    38.3000    36.7000    37.5000    42.2000    43.8000    43.8000    41.4000    43.0000    43.0000    43.0000    46.1000    46.9000    47.7000    49.2000    50.0000    52.3000    50.0000    48.4000    49.2000    50.8000    50.0000    47.7000    46.9000    47.7000    48.4000    48.4000    48.4000    50.0000    50.8000    47.7000    47.7000    49.2000    49.2000    46.9000    43.8000    43.0000    43.8000    43.0000    42.2000    44.5000    44.5000    44.5000    43.8000    41.4000    43.8000    41.4000    42.2000    39.8000    36.7000    36.7000    34.4000    35.2000    31.3000    28.1000    32.0000    32.0000    32.8000    28.9000    25.0000    26.6000    27.3000    24.2000    26.6000    27.3000    25.0000    25.8000    22.7000    21.1000    21.1000    18.8000    14.1000    13.3000    10.9000    10.9000    14.8000    14.8000    12.5000    11.7000    12.5000    11.7000    11.7000    13.3000    10.2000     7.0000     6.3000     3.9000     4.7000     2.3000     1.6000     1.6000     0.8000    -1.6000    -3.1000    -2.3000    -6.3000   -10.2000    -7.0000    -7.8000    -7.0000    -5.5000    -6.3000    -6.3000   -10.9000   -14.8000   -16.4000   -15.6000   -15.6000   -18.0000   -18.8000   -18.0000   -17.2000   -20.3000   -18.8000   -18.8000   -21.9000   -26.6000   -25.8000   -26.6000   -25.8000   -28.9000   -30.5000   -32.8000   -35.2000   -35.9000   -39.1000   -38.3000   -35.9000   -36.7000   -38.3000   -40.6000   -45.3000   -46.9000   -50.0000   -53.9000   -57.0000   -58.6000   -61.7000   -60.2000   -57.0000   -57.0000   -58.6000   -55.5000   -53.1000   -50.0000   -42.2000   -39.8000   -42.2000   -35.9000   -31.3000   -32.0000   -25.8000   -23.4000   -22.7000   -17.2000   -17.2000   -14.1000   -14.8000   -13.3000   -12.5000   -15.6000   -15.6000   -18.8000   -17.2000   -21.1000   -27.3000   -33.6000   -35.9000   -40.6000   -46.9000   -55.5000   -63.3000   -73.4000   -83.6000   -95.3000  -102.3000  -109.4000  -122.7000  -138.3000  -143.8000  -154.7000  -162.5000  -171.9000  -179.7000  -194.5000  -206.3000  -216.4000  -225.8000  -236.7000  -246.1000  -253.9000  -263.3000  -268.8000  -275.8000  -282.0000  -289.1000  -293.8000  -301.6000  -310.2000  -315.6000  -319.5000  -322.7000  -328.1000  -331.3000  -332.8000  -334.4000  -338.3000  -338.3000  -341.4000  -342.2000  -341.4000  -343.0000  -345.3000  -344.5000  -348.4000  -350.0000  -346.9000  -348.4000  -346.1000  -343.8000  -341.4000  -342.2000  -336.7000  -335.2000  -332.0000  -331.3000  -330.5000  -330.5000  -325.8000  -323.4000  -320.3000  -318.8000  -317.2000  -318.0000  -310.9000  -307.0000  -304.7000  -298.4000  -295.3000  -292.2000  -289.1000  -287.5000  -283.6000  -285.2000  -282.0000  -280.5000  -278.1000  -277.3000  -272.7000  -266.4000  -264.1000  -260.2000  -260.9000  -256.3000  -249.2000  -244.5000  -243.8000  -241.4000  -237.5000  -235.9000  -233.6000  -233.6000  -232.0000  -230.5000  -228.1000  -225.0000  -224.2000  -220.3000  -215.6000  -213.3000  -211.7000  -212.5000  -212.5000  -210.9000  -209.4000  -207.0000  -207.8000  -205.5000  -206.3000  -210.2000  -207.0000  -204.7000  -200.0000  -197.7000  -196.1000  -197.7000  -194.5000  -195.3000  -195.3000  -195.3000  -193.0000  -193.8000  -193.8000  -195.3000  -193.8000  -190.6000  -190.6000  -191.4000  -187.5000  -185.2000  -182.0000  -180.5000  -175.0000  -176.6000  -177.3000  -173.4000  -169.5000  -172.7000  -168.8000  -164.8000  -160.2000  -158.6000  -154.7000  -156.3000  -150.0000  -145.3000  -139.8000  -139.1000  -136.7000  -132.0000  -126.6000  -125.0000  -119.5000  -116.4000  -110.2000  -108.6000  -103.1000   -95.3000   -89.1000   -83.6000   -78.1000   -75.0000   -68.8000   -64.1000   -63.3000   -57.8000   -53.1000   -45.3000   -43.0000   -36.7000   -29.7000   -25.0000   -19.5000   -18.0000   -15.6000   -12.5000    -9.4000    -4.7000    -1.6000     6.3000    11.7000    16.4000    18.8000    21.1000    23.4000    28.9000    32.0000    35.9000    36.7000    41.4000    46.1000    46.9000    51.6000    55.5000    60.9000    64.8000    65.6000    68.0000    75.0000    81.3000    82.8000    81.3000    85.9000    93.8000    96.1000   102.3000   105.5000   108.6000   108.6000   112.5000   116.4000   117.2000   118.0000   120.3000   124.2000   126.6000   128.9000   129.7000   132.8000   132.0000   132.8000   134.4000   134.4000   136.7000   137.5000   139.8000   139.8000   139.8000   139.8000   139.1000   139.1000   142.2000   143.0000   142.2000   141.4000   140.6000   136.7000   138.3000   139.1000   132.0000   127.3000   127.3000   122.7000   122.7000   118.8000   112.5000   109.4000   104.7000    97.7000    96.1000    89.1000    82.0000    75.8000    70.3000    62.5000    58.6000    53.9000    43.8000    37.5000    30.5000    22.7000    16.4000     7.8000    -4.7000   -10.9000   -20.3000   -33.6000   -40.6000   -47.7000   -60.9000   -70.3000   -78.9000   -87.5000   -94.5000   -99.2000  -109.4000  -116.4000  -119.5000  -123.4000  -128.9000  -133.6000  -139.1000  -143.0000  -146.9000  -153.1000  -154.7000  -157.8000  -164.1000  -164.8000  -167.2000  -168.0000  -166.4000  -164.1000  -161.7000  -166.4000  -167.2000  -166.4000  -161.7000  -160.2000  -152.3000  -151.6000  -150.8000  -150.0000  -147.7000  -144.5000  -138.3000  -131.3000  -127.3000  -123.4000  -119.5000  -112.5000  -106.3000  -101.6000   -95.3000   -93.8000   -91.4000   -83.6000   -79.7000   -74.2000   -68.0000   -64.1000   -58.6000   -53.1000   -46.1000   -39.8000   -34.4000   -27.3000   -26.6000   -24.2000   -18.0000   -13.3000   -11.7000    -3.1000    -0.8000     3.9000     9.4000    13.3000    17.2000    22.7000    27.3000    30.5000    32.0000    34.4000    40.6000    40.6000    43.0000    46.1000    52.3000    51.6000    50.8000    58.6000    60.9000    60.9000    64.8000    71.1000    71.9000    71.9000    73.4000    76.6000    80.5000    80.5000    79.7000    80.5000    83.6000    83.6000    85.2000    84.4000    85.9000    85.2000    86.7000    88.3000    89.1000    89.8000    87.5000    89.1000    94.5000    99.2000    96.1000    91.4000    92.2000    93.0000    90.6000    95.3000    93.8000    94.5000    94.5000    93.8000    95.3000    92.2000    90.6000    90.6000    88.3000    85.9000    85.2000    85.9000    85.9000    82.0000    85.2000    86.7000    96.9000   109.4000   122.7000   136.7000   153.9000   175.8000   200.8000   221.9000   241.4000   263.3000   285.9000   311.7000   331.3000   344.5000   363.3000   378.9000   393.0000   410.2000   420.3000   432.0000   435.9000   434.4000   432.8000   425.0000   414.1000   393.8000   371.1000   340.6000   311.7000   277.3000   236.7000   189.1000   139.1000    87.5000    28.1000   -36.7000  -103.9000  -171.9000  -236.7000  -300.0000  -361.7000  -417.2000  -461.7000  -496.9000  -525.8000  -546.1000  -570.3000  -590.6000  -602.3000  -618.0000  -628.9000  -638.3000  -641.4000  -646.1000  -649.2000  -647.7000  -643.8000  -633.6000  -625.0000  -612.5000  -603.9000  -590.6000  -577.3000  -560.9000  -545.3000  -529.7000  -516.4000  -498.4000  -480.5000  -460.9000  -441.4000  -422.7000  -404.7000  -389.8000  -369.5000  -353.1000  -339.1000  -319.5000  -300.0000  -282.0000  -264.8000  -248.4000  -224.2000  -206.3000  -189.8000  -173.4000  -155.5000  -139.1000  -125.8000  -112.5000  -103.1000   -89.1000   -75.8000   -62.5000   -49.2000   -39.8000   -28.1000   -19.5000    -7.8000     2.3000     4.7000    13.3000    15.6000    23.4000    29.7000    33.6000    40.6000    43.8000    44.5000    51.6000    55.5000    54.7000    59.4000    60.9000    62.5000    60.9000    60.9000    62.5000    62.5000    58.6000    57.8000    59.4000    58.6000    55.5000    52.3000    49.2000    45.3000    37.5000    41.4000    37.5000    34.4000    30.5000    25.8000    24.2000    19.5000    14.1000    10.2000     2.3000    -0.8000    -7.0000   -14.1000   -16.4000   -24.2000   -30.5000   -35.9000   -46.1000   -53.1000   -57.8000   -64.8000   -68.8000   -75.8000   -78.9000   -86.7000   -93.0000   -96.1000  -100.0000  -107.0000  -118.0000  -126.6000  -129.7000  -135.9000  -141.4000  -149.2000  -154.7000  -160.9000  -164.8000  -168.0000  -170.3000  -173.4000  -179.7000  -184.4000  -187.5000  -189.1000  -191.4000  -192.2000  -195.3000  -198.4000  -201.6000  -197.7000  -199.2000  -195.3000  -196.1000  -193.0000  -196.1000  -195.3000  -192.2000  -193.0000  -192.2000  -193.8000  -190.6000  -189.8000  -193.0000  -188.3000  -186.7000  -185.9000  -184.4000  -181.3000  -182.8000  -181.3000  -177.3000  -175.8000  -175.8000  -175.0000  -171.1000  -171.9000  -169.5000  -168.0000  -167.2000  -163.3000  -163.3000  -154.7000  -150.8000  -149.2000  -145.3000  -142.2000  -139.1000  -133.6000  -132.8000  -129.7000  -127.3000  -121.9000  -118.8000  -114.8000  -111.7000  -103.9000   -96.9000   -92.2000   -83.6000   -80.5000   -78.1000   -68.8000   -66.4000   -65.6000   -62.5000   -56.3000   -48.4000   -42.2000   -35.2000   -32.8000   -29.7000   -22.7000   -14.1000    -8.6000    -7.0000    -7.8000     0.8000     0.0000     7.0000    12.5000    14.1000    23.4000    26.6000    25.0000    30.5000    35.2000    35.9000    37.5000    40.6000    39.1000    42.2000    45.3000    47.7000    53.9000    53.1000    57.0000    57.8000    60.9000    65.6000    68.8000    71.1000    71.1000    69.5000    71.1000    72.7000    73.4000    75.8000    77.3000    77.3000    75.8000    78.9000    81.3000    80.5000    78.9000    80.5000    82.8000    84.4000    83.6000    85.2000    87.5000    84.4000    85.2000    86.7000    85.2000    85.2000    89.8000    91.4000    86.7000    88.3000    91.4000    93.0000    90.6000    89.8000    87.5000    92.2000    92.2000    93.0000    89.8000    93.0000    92.2000    92.2000    92.2000    94.5000    93.8000    93.8000    94.5000    94.5000    95.3000    93.0000    94.5000    93.0000    89.8000    89.8000    91.4000    92.2000    85.9000    89.8000    91.4000    88.3000    87.5000    88.3000    90.6000    92.2000    85.9000    85.2000    87.5000    85.9000    82.0000    84.4000    86.7000    85.9000    84.4000    79.7000    80.5000    77.3000    78.1000    80.5000    80.5000    78.9000    75.8000    76.6000    80.5000    77.3000    75.0000    78.9000    75.8000    75.8000    72.7000    75.0000    74.2000    72.7000    69.5000    71.1000    75.8000    71.9000    69.5000    64.1000    61.7000    64.1000    64.1000    62.5000    61.7000    56.3000    55.5000    57.0000    54.7000    52.3000    50.8000    53.1000    53.9000    52.3000    48.4000    43.8000    43.8000    43.8000    43.8000    43.0000    43.0000    39.8000    35.2000    34.4000    35.2000    28.9000    25.0000    21.1000    18.8000    18.0000    13.3000     9.4000     3.9000     0.0000     0.0000    -0.8000    -4.7000    -6.3000   -10.9000   -14.8000   -15.6000   -17.2000   -19.5000   -19.5000   -24.2000   -27.3000   -28.9000   -30.5000   -33.6000   -40.6000   -43.8000   -43.8000   -47.7000   -50.0000   -51.6000   -54.7000   -56.3000   -57.0000   -61.7000   -62.5000   -68.8000   -71.1000   -72.7000   -75.0000   -78.1000   -81.3000   -83.6000   -83.6000   -83.6000   -89.8000   -87.5000   -89.8000   -91.4000   -92.2000   -92.2000  -100.0000  -100.8000  -103.9000  -105.5000  -107.8000  -114.1000  -111.7000  -107.8000  -110.2000  -111.7000  -113.3000  -114.8000  -114.8000  -115.6000  -114.8000  -114.8000  -118.0000  -121.9000  -123.4000  -119.5000  -118.8000  -120.3000  -121.1000  -116.4000  -117.2000  -116.4000  -117.2000  -113.3000  -110.2000  -113.3000  -114.8000  -114.1000  -116.4000  -114.8000  -112.5000  -110.9000  -110.9000  -107.0000  -107.0000  -106.3000  -105.5000  -103.1000  -106.3000  -104.7000  -104.7000  -103.9000  -104.7000  -104.7000  -103.9000  -100.0000   -96.9000   -93.8000   -94.5000   -94.5000   -93.8000   -93.8000   -94.5000   -94.5000   -93.8000   -91.4000   -91.4000   -90.6000   -88.3000   -85.2000   -83.6000   -83.6000   -79.7000   -82.0000   -82.0000   -82.8000   -82.8000   -80.5000   -79.7000   -78.9000   -78.1000   -75.0000   -74.2000   -74.2000   -73.4000   -70.3000   -69.5000   -70.3000   -69.5000   -66.4000   -67.2000   -68.0000   -65.6000   -63.3000   -64.1000   -66.4000   -67.2000   -67.2000   -66.4000   -64.8000   -65.6000   -65.6000   -60.9000   -58.6000   -57.0000   -57.8000   -57.8000   -57.8000   -57.8000   -58.6000   -61.7000   -60.9000   -60.9000   -60.2000   -57.8000   -59.4000   -55.5000   -54.7000   -55.5000   -58.6000   -56.3000   -57.8000   -58.6000   -59.4000   -59.4000   -60.9000   -61.7000   -57.8000   -57.8000   -56.3000   -57.8000   -55.5000   -56.3000   -57.0000   -56.3000   -54.7000   -55.5000   -58.6000   -62.5000   -61.7000   -60.9000   -58.6000   -57.8000   -53.9000   -56.3000   -60.9000   -63.3000   -63.3000   -61.7000   -62.5000   -61.7000   -63.3000   -64.1000   -68.0000   -63.3000   -64.8000   -63.3000   -61.7000   -60.9000   -62.5000   -64.1000   -64.8000   -63.3000   -64.1000   -65.6000   -64.8000   -64.8000   -65.6000   -64.1000   -62.5000   -66.4000   -63.3000   -64.8000   -64.1000   -64.1000   -66.4000   -67.2000   -64.8000   -66.4000   -66.4000   -64.1000   -63.3000   -64.1000   -64.1000   -64.8000   -62.5000   -64.1000   -64.1000   -65.6000   -68.0000   -67.2000   -65.6000   -64.1000   -60.9000   -58.6000   -60.9000   -60.9000   -60.2000   -58.6000   -60.9000   -61.7000   -61.7000   -61.7000   -65.6000   -60.9000   -57.8000   -59.4000   -61.7000   -60.9000   -61.7000   -62.5000   -59.4000   -57.8000   -57.0000   -61.7000   -64.8000   -64.8000   -69.5000   -68.0000   -70.3000   -69.5000   -69.5000   -72.7000   -75.0000   -74.2000   -71.9000   -75.8000   -78.1000   -78.1000   -82.8000   -83.6000   -84.4000   -85.9000   -89.1000   -88.3000   -88.3000   -90.6000   -93.0000   -96.1000   -97.7000   -96.1000  -100.8000   -98.4000  -100.0000  -102.3000  -101.6000  -102.3000  -102.3000  -105.5000  -100.0000   -98.4000   -98.4000   -94.5000   -98.4000  -100.0000  -100.0000   -96.1000  -100.0000  -100.0000   -96.9000   -95.3000   -91.4000   -95.3000   -96.9000   -92.2000   -89.8000   -91.4000   -85.9000   -85.2000   -87.5000   -88.3000   -85.9000   -84.4000   -82.0000   -80.5000   -80.5000   -79.7000   -75.8000   -74.2000   -74.2000   -71.1000   -72.7000   -72.7000   -73.4000   -75.8000   -74.2000   -72.7000   -68.0000   -68.8000   -68.0000   -68.8000   -68.0000   -65.6000   -63.3000   -60.9000   -61.7000   -64.1000   -60.9000   -60.9000   -60.9000   -61.7000   -60.9000   -62.5000   -61.7000   -57.8000   -57.0000   -57.0000   -57.8000   -57.8000   -54.7000   -54.7000   -57.8000   -59.4000   -58.6000   -56.3000   -56.3000   -59.4000   -56.3000   -53.9000   -56.3000   -54.7000   -56.3000   -60.9000   -57.8000   -56.3000   -55.5000   -57.8000   -60.9000   -57.8000   -60.2000   -60.9000   -62.5000   -64.1000   -65.6000   -65.6000   -68.0000   -67.2000   -68.0000   -67.2000   -66.4000   -64.1000   -65.6000   -68.0000   -68.0000   -69.5000   -73.4000   -73.4000   -73.4000   -75.0000   -72.7000   -71.9000   -74.2000   -72.7000   -75.8000   -80.5000   -82.8000   -82.8000   -81.3000   -82.0000   -84.4000   -86.7000   -84.4000   -87.5000   -88.3000   -89.8000   -90.6000   -89.1000   -90.6000   -90.6000   -90.6000   -89.8000   -89.8000   -88.3000   -92.2000   -92.2000   -93.0000   -94.5000   -93.0000   -91.4000   -93.8000   -93.8000   -90.6000   -93.0000   -93.8000   -89.8000   -89.8000   -85.9000   -90.6000   -92.2000   -94.5000   -94.5000   -93.8000   -95.3000   -94.5000  -100.0000   -95.3000   -96.1000   -99.2000  -100.8000  -100.0000  -102.3000  -101.6000  -100.0000  -100.0000   -97.7000   -96.9000   -92.2000   -91.4000   -87.5000   -82.8000   -85.2000   -84.4000   -84.4000   -81.3000   -77.3000   -78.1000   -77.3000   -75.8000   -75.8000   -75.0000   -71.9000   -70.3000   -71.1000   -73.4000   -69.5000   -69.5000   -71.1000   -74.2000   -77.3000   -77.3000   -79.7000   -86.7000   -92.2000   -95.3000   -98.4000  -105.5000  -110.9000  -118.8000  -121.9000  -125.0000  -132.0000  -137.5000  -146.1000  -157.0000  -165.6000  -171.1000  -181.3000  -183.6000  -189.8000  -195.3000  -202.3000  -206.3000  -214.1000  -223.4000  -225.8000  -229.7000  -238.3000  -243.8000  -247.7000  -250.8000  -254.7000  -257.0000  -259.4000  -262.5000  -265.6000  -267.2000  -267.2000  -267.2000  -265.6000  -261.7000  -264.1000  -262.5000  -260.9000  -260.2000  -259.4000  -259.4000  -254.7000  -256.3000  -254.7000  -249.2000  -246.1000  -241.4000  -237.5000  -235.2000  -229.7000  -227.3000  -223.4000  -215.6000  -209.4000  -207.0000  -205.5000  -204.7000  -202.3000  -194.5000  -189.1000  -184.4000  -178.9000  -174.2000  -170.3000  -164.1000  -159.4000  -157.8000  -153.1000  -149.2000  -144.5000  -143.0000  -142.2000  -134.4000  -127.3000  -126.6000  -123.4000  -118.8000  -114.1000  -113.3000  -107.0000  -103.9000  -103.9000  -101.6000  -100.0000   -96.9000   -95.3000   -87.5000   -91.4000   -92.2000   -89.8000   -90.6000   -85.2000   -85.9000   -82.8000   -78.9000   -81.3000   -85.2000   -87.5000   -89.1000   -85.9000   -87.5000   -89.8000   -91.4000   -90.6000   -93.0000   -96.1000   -95.3000   -96.1000  -101.6000  -104.7000  -107.8000  -111.7000  -116.4000  -118.8000  -122.7000  -126.6000  -130.5000  -134.4000  -139.8000  -142.2000  -145.3000  -153.1000  -160.2000  -165.6000  -174.2000  -180.5000  -185.9000  -189.8000  -196.1000  -204.7000  -210.9000  -218.0000  -220.3000  -228.1000  -232.8000  -239.1000  -246.1000  -252.3000  -259.4000  -264.8000  -272.7000  -275.8000  -283.6000  -286.7000  -292.2000  -299.2000  -303.1000  -305.5000  -315.6000  -317.2000  -325.0000  -328.9000  -332.8000  -333.6000  -341.4000  -348.4000  -347.7000  -351.6000  -357.0000  -357.8000  -360.9000  -361.7000  -358.6000  -363.3000  -364.8000  -364.8000  -366.4000  -368.8000  -368.8000  -369.5000  -372.7000  -371.1000  -374.2000  -371.1000  -371.1000  -375.8000  -374.2000  -370.3000  -368.8000  -370.3000  -363.3000  -363.3000  -366.4000  -362.5000  -364.8000  -364.1000  -360.2000  -358.6000  -357.8000  -355.5000  -353.1000  -349.2000  -345.3000  -345.3000  -343.0000  -343.0000  -339.1000  -332.8000  -332.0000  -328.9000  -328.9000  -323.4000  -317.2000  -316.4000  -313.3000  -307.0000  -304.7000  -300.8000  -293.8000  -285.9000  -284.4000  -281.3000  -276.6000  -274.2000  -268.8000  -264.1000  -257.0000  -253.9000  -247.7000  -242.2000  -236.7000  -232.0000  -225.0000  -218.0000  -213.3000  -207.0000  -200.8000  -197.7000  -192.2000  -187.5000  -181.3000  -177.3000  -174.2000  -165.6000  -158.6000  -152.3000  -145.3000  -139.1000  -135.9000  -126.6000  -116.4000  -107.0000   -93.8000   -74.2000   -57.0000   -36.7000   -14.1000    10.9000    34.4000    62.5000    91.4000   115.6000   140.6000   163.3000   186.7000   210.9000   229.7000   246.1000   263.3000   280.5000   293.0000   305.5000   315.6000   318.0000   318.0000   311.7000   303.1000   289.8000   271.9000   250.8000   221.9000   185.9000   146.1000    99.2000    42.2000   -18.0000   -82.0000  -143.8000  -207.8000  -273.4000  -334.4000  -391.4000  -443.0000  -485.9000  -518.0000  -546.1000  -568.8000  -584.4000  -600.0000  -615.6000  -628.1000  -636.7000  -642.2000  -643.0000  -642.2000  -639.1000  -638.3000  -632.0000  -622.7000  -609.4000  -596.9000  -582.0000  -568.0000  -550.0000  -530.5000  -516.4000  -499.2000  -480.5000  -460.9000  -443.0000  -422.7000  -403.1000  -380.5000  -359.4000  -335.2000  -314.1000  -292.2000  -268.8000  -248.4000  -221.1000  -197.7000  -180.5000  -157.0000  -131.3000  -111.7000   -89.1000   -71.1000   -53.1000   -32.8000   -10.2000     7.0000    27.3000    48.4000    66.4000    85.2000   100.0000   112.5000   128.1000   145.3000   158.6000   173.4000   189.1000   196.9000   207.8000   221.1000   233.6000   243.0000   257.8000   268.8000   275.0000   285.2000   296.1000   306.3000   312.5000   321.1000   325.8000   335.9000   335.2000   338.3000   342.2000   348.4000   349.2000   353.1000   358.6000   357.8000   358.6000   359.4000   361.7000   361.7000   364.8000   362.5000   362.5000   361.7000   363.3000   365.6000   360.9000   351.6000   349.2000   347.7000   346.1000   340.6000   333.6000   326.6000   322.7000   315.6000   310.2000   304.7000   300.8000   285.9000   276.6000   274.2000   267.2000   256.3000   246.1000   236.7000   228.1000   220.3000   213.3000   205.5000   189.8000   178.9000   167.2000   157.8000   148.4000   136.7000   128.1000   119.5000   108.6000   100.0000    94.5000    86.7000    79.7000    73.4000    70.3000    65.6000    59.4000    55.5000    53.9000    52.3000    51.6000    48.4000    52.3000    48.4000    44.5000    46.1000    43.0000    45.3000    44.5000    43.0000    43.8000    44.5000    46.9000    46.9000    46.9000    53.1000    51.6000    56.3000    62.5000    65.6000    65.6000    73.4000    79.7000    85.2000    90.6000    95.3000   103.1000   103.9000   108.6000   114.1000   125.0000   128.9000   134.4000   141.4000   147.7000   150.8000   160.9000   168.8000   175.8000   179.7000   184.4000   193.0000   200.8000   207.8000   214.1000   219.5000   228.9000   238.3000   245.3000   251.6000   252.3000   253.9000   260.9000   267.2000   271.9000   275.0000   279.7000   280.5000   283.6000   287.5000   293.8000   296.9000   299.2000   301.6000   307.8000   308.6000   308.6000   314.8000   318.0000   318.0000   319.5000   321.1000   322.7000   322.7000   323.4000   324.2000   324.2000   326.6000   323.4000   321.1000   318.0000   315.6000   316.4000   314.8000   315.6000   310.2000   307.8000   307.0000   305.5000   305.5000   301.6000   296.9000   299.2000   299.2000   299.2000   300.8000   299.2000   293.0000   288.3000   287.5000   289.1000   283.6000   278.1000   275.0000   276.6000   275.8000   272.7000   268.0000   261.7000   258.6000   256.3000   258.6000   255.5000   251.6000   250.0000   245.3000   242.2000   241.4000   236.7000   235.9000   230.5000   226.6000   226.6000   225.0000   219.5000   214.1000   213.3000   211.7000   203.1000   201.6000   196.9000   189.8000   188.3000   187.5000   185.2000   181.3000   177.3000   173.4000   173.4000   173.4000   171.1000   166.4000   164.8000   162.5000   162.5000   160.9000   157.8000   153.9000   146.9000   143.8000   141.4000   140.6000   138.3000   138.3000   133.6000   130.5000   123.4000   125.0000   122.7000   121.9000   117.2000   116.4000   117.2000   115.6000   109.4000   107.0000   105.5000   104.7000   103.1000   102.3000   100.8000    96.1000    96.9000    93.8000    94.5000    93.8000    90.6000    82.0000    79.7000    75.0000    72.7000    70.3000    67.2000    66.4000    63.3000    60.9000    58.6000    56.3000    55.5000    53.9000    51.6000    48.4000    46.1000    44.5000    35.9000    32.0000    28.9000    28.1000    24.2000    19.5000    18.0000    12.5000    12.5000     7.8000     7.0000     6.3000     3.1000     0.0000    -2.3000    -7.0000   -12.5000   -13.3000   -17.2000   -18.0000   -22.7000   -24.2000   -26.6000   -31.3000   -35.2000   -39.8000   -41.4000   -46.1000   -47.7000   -51.6000   -55.5000   -60.2000   -65.6000   -65.6000   -69.5000   -75.0000   -78.1000   -82.0000   -84.4000   -85.9000   -94.5000  -100.0000  -103.9000  -109.4000  -117.2000  -123.4000  -123.4000  -127.3000  -129.7000  -131.3000  -135.2000  -141.4000  -146.1000  -153.1000  -157.0000  -159.4000  -160.2000  -164.1000  -171.1000  -174.2000  -177.3000  -178.1000  -180.5000  -182.8000  -182.8000  -189.1000  -192.2000  -193.0000  -193.8000  -200.8000  -204.7000  -207.8000  -211.7000  -218.0000  -218.0000  -218.0000  -220.3000  -222.7000  -222.7000  -226.6000  -228.9000  -231.3000  -232.0000  -235.2000  -238.3000  -239.1000  -243.0000  -245.3000  -243.0000  -241.4000  -243.0000  -243.0000  -242.2000  -243.0000  -243.8000  -242.2000  -240.6000  -246.1000  -251.6000  -252.3000  -252.3000  -253.9000  -254.7000  -252.3000  -253.1000  -252.3000  -253.9000  -250.8000  -250.8000  -247.7000  -248.4000  -253.1000  -253.1000  -253.9000  -255.5000  -253.9000  -253.1000  -254.7000  -254.7000  -253.9000  -250.0000  -246.9000  -246.1000  -241.4000  -244.5000  -246.1000  -243.8000  -243.0000  -243.8000  -246.1000  -243.8000  -243.0000  -243.8000  -242.2000  -242.2000  -239.1000  -240.6000  -240.6000  -239.1000  -239.1000  -240.6000  -234.4000  -235.9000  -235.2000  -232.0000  -232.0000  -231.3000  -232.0000  -232.0000  -232.8000  -234.4000  -232.8000  -231.3000  -231.3000  -232.0000  -232.8000  -235.9000  -232.0000  -231.3000  -228.9000  -227.3000  -228.9000  -230.5000  -231.3000  -232.0000  -225.8000  -226.6000  -227.3000  -229.7000  -228.1000  -227.3000  -225.8000  -224.2000  -221.1000  -225.0000  -226.6000  -222.7000  -219.5000  -215.6000  -216.4000  -220.3000  -214.8000  -214.8000  -215.6000  -215.6000  -215.6000  -215.6000  -217.2000  -214.1000  -213.3000  -214.8000  -209.4000  -209.4000  -204.7000  -207.0000  -207.8000  -205.5000  -203.9000  -203.1000  -204.7000  -202.3000  -202.3000  -203.1000  -194.5000  -193.8000  -193.0000  -188.3000  -187.5000  -186.7000  -189.8000  -188.3000  -186.7000  -182.0000  -181.3000  -181.3000  -178.9000  -177.3000  -174.2000  -170.3000  -169.5000  -167.2000  -165.6000  -168.0000  -167.2000  -165.6000  -164.8000  -164.1000  -163.3000  -159.4000  -164.1000  -157.8000  -153.1000  -153.1000  -150.0000  -147.7000  -149.2000  -147.7000  -144.5000  -145.3000  -145.3000  -147.7000  -144.5000  -143.0000  -143.8000  -141.4000  -139.1000  -139.1000  -140.6000  -135.9000  -134.4000  -134.4000  -129.7000  -127.3000  -129.7000  -129.7000  -129.7000  -130.5000  -132.8000  -129.7000  -128.1000  -127.3000  -127.3000  -127.3000  -126.6000  -125.8000  -126.6000  -125.0000  -125.8000  -128.1000  -128.1000  -131.3000  -136.7000  -135.9000  -135.9000  -139.1000  -138.3000  -140.6000  -147.7000  -147.7000  -148.4000  -151.6000  -157.8000  -162.5000  -166.4000  -172.7000  -173.4000  -171.1000  -173.4000  -171.9000  -173.4000  -177.3000  -179.7000  -179.7000  -179.7000  -178.9000  -177.3000  -176.6000  -178.1000  -173.4000  -175.8000  -172.7000  -171.1000  -171.1000  -170.3000  -165.6000  -164.1000  -164.8000  -160.2000  -157.0000  -150.8000  -150.0000  -146.1000  -143.0000  -138.3000  -140.6000  -137.5000  -130.5000  -126.6000  -121.9000  -120.3000  -117.2000  -113.3000  -107.0000  -103.9000  -100.0000   -92.2000   -88.3000   -86.7000   -81.3000   -74.2000   -66.4000   -61.7000   -62.5000   -58.6000   -51.6000   -43.8000   -42.2000   -40.6000   -36.7000   -32.8000   -24.2000   -21.9000   -17.2000   -14.8000   -11.7000    -3.1000     3.9000     5.5000    14.1000    18.8000    17.2000    17.2000    21.9000    29.7000    31.3000    33.6000    39.1000    42.2000    43.0000    46.9000    50.8000    52.3000    52.3000    56.3000    64.8000    68.0000    68.0000    68.0000    71.1000    74.2000    77.3000    83.6000    85.9000    88.3000    91.4000    90.6000    93.8000    95.3000    94.5000    95.3000    95.3000    96.1000   100.0000    99.2000   100.8000   100.0000   102.3000   103.9000   100.8000   102.3000   101.6000   100.8000   103.1000   103.1000   105.5000   103.1000    99.2000    97.7000    94.5000    93.0000    89.8000    87.5000    85.2000    82.8000    77.3000    71.1000    68.8000    67.2000    64.1000    55.5000    54.7000    52.3000    47.7000    45.3000    34.4000    34.4000    28.9000    21.1000    19.5000    14.1000     2.3000    -4.7000    -9.4000   -17.2000   -22.7000   -27.3000   -35.2000   -41.4000   -46.9000   -53.9000   -58.6000   -66.4000   -78.1000   -83.6000   -88.3000   -92.2000   -96.9000  -103.9000  -113.3000  -121.9000  -127.3000  -133.6000  -143.0000  -150.8000  -157.0000  -164.8000  -175.0000  -176.6000  -184.4000  -189.1000  -193.8000  -198.4000  -204.7000  -210.2000  -214.1000  -210.9000  -210.2000  -214.8000  -217.2000  -213.3000  -212.5000  -210.2000  -206.3000  -202.3000  -196.9000  -196.9000  -193.8000  -188.3000  -186.7000  -185.2000  -182.8000  -179.7000  -178.1000  -180.5000  -176.6000  -172.7000  -171.1000  -171.1000  -172.7000  -171.9000  -174.2000  -176.6000  -175.0000  -181.3000  -187.5000  -189.1000  -196.1000  -204.7000  -209.4000  -214.1000  -218.8000  -225.0000  -235.2000  -243.0000  -243.8000  -250.0000  -260.9000  -267.2000  -273.4000  -278.9000  -287.5000  -294.5000  -301.6000  -308.6000  -313.3000  -314.8000  -318.0000  -324.2000  -327.3000  -330.5000  -334.4000  -339.8000  -342.2000  -345.3000  -345.3000  -350.0000  -346.9000  -346.1000  -345.3000  -343.0000  -343.0000  -343.0000  -333.6000  -330.5000  -329.7000  -327.3000  -326.6000  -321.9000  -319.5000  -318.0000  -313.3000  -307.8000  -303.9000  -304.7000  -299.2000  -293.0000  -285.2000  -278.9000  -271.1000  -268.8000  -264.1000  -257.0000  -252.3000  -246.1000  -243.0000  -239.1000  -232.8000  -227.3000  -218.0000  -208.6000  -203.1000  -197.7000  -191.4000  -185.2000  -179.7000  -175.0000  -164.1000  -158.6000  -152.3000  -151.6000  -147.7000  -144.5000  -135.9000  -127.3000  -124.2000  -118.0000  -112.5000  -107.8000  -100.0000   -91.4000   -84.4000   -80.5000   -78.1000   -72.7000   -66.4000   -62.5000   -57.0000   -53.1000   -47.7000   -45.3000   -36.7000   -30.5000   -28.1000   -19.5000   -14.8000   -14.8000   -10.2000    -4.7000     0.0000     3.1000     9.4000    14.1000    18.0000    19.5000    25.8000    29.7000    32.8000    35.9000    38.3000    39.1000    41.4000    46.1000    49.2000    50.0000    53.1000    57.8000    57.8000    57.8000    63.3000    64.1000    68.8000    71.1000    70.3000    70.3000    71.9000    73.4000    76.6000    76.6000    76.6000    79.7000    80.5000    84.4000    83.6000    85.9000    85.9000    84.4000    83.6000    84.4000    79.7000    79.7000    80.5000    82.0000    80.5000    81.3000    82.8000    79.7000    82.0000    82.8000    84.4000    86.7000    83.6000    81.3000    82.0000    77.3000    75.8000    75.0000    78.1000    76.6000    75.0000    74.2000    75.8000    75.0000    73.4000    70.3000    74.2000    75.0000    73.4000    74.2000    73.4000    68.0000    67.2000    67.2000    68.8000    66.4000    68.0000    62.5000    64.1000    68.0000    64.8000    64.8000    66.4000    65.6000    64.1000    60.9000    61.7000    60.2000    58.6000    59.4000    57.8000    59.4000    59.4000    58.6000    57.8000    54.7000    56.3000    56.3000    57.8000    55.5000    53.9000    54.7000    55.5000    50.8000    49.2000    52.3000    50.8000    46.9000    50.0000    47.7000    49.2000    47.7000    47.7000    46.9000    46.1000    44.5000    43.0000    46.1000    43.0000    43.0000    39.1000    39.8000    37.5000    39.1000    39.8000    33.6000    33.6000    30.5000    29.7000    29.7000    31.3000    28.9000    30.5000    26.6000    21.1000    21.1000    18.0000    14.8000    15.6000    15.6000    10.9000     8.6000     9.4000     8.6000     8.6000     4.7000     3.9000     0.8000    -1.6000    -4.7000    -5.5000    -8.6000   -14.1000   -15.6000   -15.6000   -18.8000   -21.1000   -22.7000   -25.8000   -31.3000   -34.4000   -36.7000   -43.0000   -46.1000   -47.7000   -53.1000   -54.7000   -55.5000   -60.9000   -63.3000   -68.8000   -72.7000   -77.3000   -79.7000   -78.9000   -80.5000   -83.6000   -89.1000   -88.3000   -89.1000   -89.8000   -92.2000   -94.5000  -100.0000  -102.3000  -102.3000  -104.7000  -103.9000  -101.6000  -105.5000  -104.7000  -103.9000  -103.9000  -103.9000  -104.7000  -103.1000  -104.7000  -105.5000  -104.7000  -107.0000  -107.0000  -104.7000  -102.3000  -103.9000  -103.9000  -102.3000  -100.8000  -100.0000   -95.3000   -93.0000   -93.0000   -93.0000   -91.4000   -93.8000   -96.1000   -92.2000   -89.8000   -89.1000   -89.8000   -89.8000   -86.7000   -83.6000   -85.9000   -87.5000   -85.2000   -85.9000   -89.8000   -89.1000   -86.7000   -83.6000   -84.4000   -82.0000   -79.7000   -81.3000   -83.6000   -83.6000   -81.3000   -79.7000   -78.1000   -78.9000   -75.8000   -77.3000   -77.3000   -76.6000   -71.9000   -68.8000   -70.3000   -70.3000   -68.8000   -70.3000   -68.8000   -65.6000   -67.2000   -66.4000   -66.4000   -65.6000   -59.4000   -55.5000   -54.7000   -57.0000   -54.7000   -49.2000   -49.2000   -46.9000   -47.7000   -47.7000   -46.1000   -43.0000   -44.5000   -46.9000   -44.5000   -45.3000   -44.5000   -42.2000   -43.0000   -43.0000   -40.6000   -43.0000   -43.8000   -47.7000   -48.4000   -50.8000   -54.7000   -56.3000   -57.0000   -58.6000   -60.2000   -60.2000   -64.1000   -67.2000   -72.7000   -78.1000   -82.8000   -89.1000   -96.1000  -100.8000  -110.9000  -114.1000  -120.3000  -126.6000  -130.5000  -136.7000  -146.1000  -152.3000  -161.7000  -171.9000  -178.9000  -186.7000  -200.0000  -205.5000  -211.7000  -221.9000  -231.3000  -245.3000  -253.9000  -261.7000  -271.9000  -283.6000  -294.5000  -309.4000  -313.3000  -321.9000  -328.1000  -335.2000  -342.2000  -346.9000  -351.6000  -360.9000  -364.1000  -368.0000  -368.0000  -368.0000  -367.2000  -364.1000  -352.3000  -340.6000  -328.1000  -305.5000  -288.3000  -268.8000  -246.9000  -224.2000  -200.0000  -175.0000  -153.9000  -132.8000  -114.8000   -94.5000   -71.1000   -47.7000   -32.0000   -20.3000    -3.1000    11.7000    21.1000    29.7000    32.8000    24.2000    16.4000     3.9000   -14.1000   -39.1000   -66.4000   -96.9000  -133.6000  -173.4000  -221.9000  -269.5000  -318.0000  -373.4000  -429.7000  -494.5000  -556.3000  -615.6000  -661.7000  -708.6000  -745.3000  -771.1000  -790.6000  -809.4000  -819.5000  -830.5000  -838.3000  -842.2000  -850.0000  -848.4000  -848.4000  -846.1000  -839.1000  -831.3000  -821.9000  -812.5000  -796.9000  -781.3000  -764.1000  -744.5000  -725.8000  -707.8000  -688.3000  -670.3000  -649.2000  -627.3000  -605.5000  -585.9000  -564.1000  -546.1000  -526.6000  -503.9000  -482.0000  -462.5000  -441.4000  -418.8000  -397.7000  -375.0000  -352.3000  -332.0000  -312.5000  -293.8000  -275.0000  -257.8000  -240.6000  -218.8000  -198.4000  -180.5000  -164.8000  -147.7000  -129.7000  -112.5000   -96.9000   -79.7000   -65.6000   -48.4000   -32.0000   -19.5000    -4.7000    10.9000    24.2000    38.3000    53.9000    68.0000    77.3000    89.8000   103.1000   116.4000   121.9000   132.8000   144.5000   154.7000   165.6000   173.4000   184.4000   193.0000   199.2000   210.2000   218.8000   225.8000   233.6000   242.2000   246.9000   254.7000   264.1000   268.8000   275.0000   281.3000   286.7000   290.6000   301.6000   303.9000   308.6000   309.4000   312.5000   316.4000   321.1000   321.1000   324.2000   327.3000   327.3000   335.2000   336.7000   337.5000   336.7000   342.2000   346.9000   346.9000   346.1000   347.7000   348.4000   349.2000   348.4000   352.3000   354.7000   351.6000   352.3000   352.3000   355.5000   353.9000   355.5000   355.5000   351.6000   352.3000   353.1000   353.9000   355.5000   355.5000   355.5000   350.0000   350.0000   353.9000   355.5000   353.1000   350.0000   349.2000   351.6000   354.7000   351.6000   351.6000   350.0000   345.3000   344.5000   344.5000   342.2000   339.8000   343.8000   344.5000   339.8000   339.8000   339.8000   335.2000   332.8000   333.6000   334.4000   337.5000   333.6000   328.9000   332.8000   329.7000   330.5000   325.0000   323.4000   322.7000   318.8000   320.3000   321.1000   319.5000   320.3000   317.2000   318.8000   318.8000   315.6000   317.2000   319.5000   314.1000   313.3000   310.9000   312.5000   313.3000   308.6000   303.1000   305.5000   304.7000   302.3000   301.6000   296.1000   289.8000   287.5000   287.5000   282.0000   279.7000   277.3000   275.8000   271.9000   268.8000   264.1000   260.9000   257.0000   249.2000   244.5000   239.8000   235.9000   228.9000   225.8000   220.3000   214.1000   210.2000   206.3000   199.2000   196.1000   189.8000   188.3000   185.2000   181.3000   173.4000   174.2000   171.9000   171.9000   169.5000   166.4000   162.5000   157.0000   157.8000   157.0000   153.1000   149.2000   146.9000   145.3000   143.0000   143.0000   135.9000   135.2000   135.2000   133.6000   134.4000   131.3000   128.9000   125.8000   122.7000   122.7000   122.7000   121.1000   119.5000   119.5000   119.5000   119.5000   117.2000   119.5000   118.8000   120.3000   118.0000   115.6000   116.4000   117.2000   110.9000   108.6000   109.4000   110.9000   108.6000   107.0000   103.9000   104.7000   103.1000   102.3000    99.2000    98.4000    99.2000    95.3000    95.3000    91.4000    87.5000    84.4000    82.0000    78.9000    74.2000    72.7000    71.1000    69.5000    68.8000    66.4000    60.2000    60.9000    58.6000    55.5000    54.7000    53.9000    46.9000    42.2000    39.8000    40.6000    36.7000    28.9000    25.0000    23.4000    21.1000    16.4000    10.9000     7.0000     5.5000    -1.6000    -4.7000    -8.6000   -14.1000   -18.0000   -20.3000   -22.7000   -28.1000   -31.3000   -32.8000   -38.3000   -43.0000   -50.0000   -55.5000   -59.4000   -64.1000   -68.0000   -72.7000   -80.5000   -83.6000   -88.3000   -93.0000   -93.8000   -98.4000  -106.3000  -110.2000  -116.4000  -123.4000  -127.3000  -127.3000  -131.3000  -136.7000  -141.4000  -151.6000  -159.4000  -167.2000  -175.8000  -179.7000  -182.0000  -188.3000  -193.8000  -200.0000  -206.3000  -214.1000  -218.0000  -225.0000  -232.0000  -235.2000  -245.3000  -253.9000  -257.8000  -265.6000  -271.9000  -278.1000  -284.4000  -288.3000  -296.9000  -303.1000  -307.8000  -308.6000  -318.8000  -324.2000  -331.3000  -335.9000  -343.8000  -349.2000  -357.8000  -364.8000  -366.4000  -369.5000  -372.7000  -377.3000  -382.8000  -389.1000  -389.1000  -390.6000  -392.2000  -393.8000  -396.9000  -399.2000  -401.6000  -403.1000  -406.3000  -405.5000  -407.8000  -407.0000  -409.4000  -408.6000  -407.8000  -413.3000  -413.3000  -412.5000  -417.2000  -414.1000  -413.3000  -413.3000  -410.2000  -407.8000  -409.4000  -412.5000  -408.6000  -409.4000  -405.5000  -404.7000  -408.6000  -403.1000  -399.2000  -396.1000  -396.9000  -400.0000  -394.5000  -391.4000  -389.1000  -385.2000  -384.4000  -382.8000  -384.4000  -384.4000  -382.0000  -381.3000  -377.3000  -371.9000  -369.5000  -362.5000  -360.2000  -358.6000  -358.6000  -357.0000  -353.1000  -350.8000  -350.8000  -351.6000  -346.9000  -345.3000  -342.2000  -339.1000  -336.7000  -334.4000  -330.5000  -326.6000  -321.1000  -315.6000  -312.5000  -308.6000  -306.3000  -307.0000  -300.8000  -300.8000  -297.7000  -296.1000  -294.5000  -292.2000  -289.1000  -283.6000  -281.3000  -279.7000  -278.1000  -275.0000  -271.9000  -267.2000  -261.7000  -257.8000  -259.4000  -258.6000  -257.0000  -256.3000  -252.3000  -248.4000  -245.3000  -237.5000  -236.7000  -235.9000  -232.0000  -229.7000  -227.3000  -224.2000  -222.7000  -222.7000  -219.5000  -221.1000  -212.5000  -210.9000  -209.4000  -205.5000  -204.7000  -200.8000  -200.8000  -195.3000  -192.2000  -189.8000  -188.3000  -182.0000  -182.0000  -182.0000  -179.7000  -175.8000  -174.2000  -170.3000  -166.4000  -164.8000  -164.8000  -162.5000  -164.1000  -160.2000  -158.6000  -156.3000  -156.3000  -158.6000  -153.9000  -147.7000  -144.5000  -144.5000  -141.4000  -139.8000  -139.8000  -138.3000  -134.4000  -135.2000  -131.3000  -128.9000  -127.3000  -125.8000  -124.2000  -124.2000  -122.7000  -121.9000  -119.5000  -118.8000  -111.7000  -110.9000  -108.6000  -111.7000  -109.4000  -105.5000  -105.5000  -101.6000   -96.9000   -95.3000   -95.3000   -94.5000   -96.1000   -89.1000   -85.9000   -82.8000   -83.6000   -85.2000   -82.8000   -83.6000   -81.3000   -78.1000   -78.1000   -77.3000   -75.8000   -73.4000   -74.2000   -71.1000   -68.8000   -65.6000   -65.6000   -65.6000   -67.2000   -68.0000   -66.4000   -66.4000   -66.4000   -66.4000   -67.2000   -65.6000   -62.5000   -63.3000   -61.7000   -61.7000   -61.7000   -59.4000   -60.9000   -61.7000   -62.5000   -60.2000   -62.5000   -61.7000   -58.6000   -58.6000   -57.0000   -57.8000   -53.9000   -50.8000   -51.6000   -51.6000   -53.1000   -53.1000   -50.8000   -53.9000   -53.9000   -53.9000   -51.6000   -52.3000   -49.2000   -50.8000   -48.4000   -46.1000   -42.2000   -41.4000   -45.3000   -44.5000   -43.0000   -41.4000   -40.6000   -40.6000   -39.8000   -35.2000   -37.5000   -39.8000   -39.8000   -40.6000   -35.2000   -32.0000   -31.3000   -30.5000   -28.9000   -28.1000   -30.5000   -29.7000   -32.8000   -30.5000   -29.7000   -27.3000   -25.8000   -25.8000   -22.7000   -21.9000   -23.4000   -19.5000   -20.3000   -17.2000   -16.4000   -13.3000   -16.4000   -15.6000   -16.4000   -17.2000   -18.0000   -16.4000   -14.1000   -15.6000   -14.8000   -10.2000    -6.3000    -3.1000     0.0000     3.9000    10.2000    10.9000    15.6000    18.8000    25.0000    33.6000    37.5000    43.0000    46.1000    50.8000    58.6000    63.3000    68.0000    72.7000    71.9000    73.4000    75.0000    75.8000    76.6000    75.8000    78.1000    73.4000    71.1000    71.9000    69.5000    63.3000    59.4000    57.8000    55.5000    52.3000    44.5000    39.8000    32.8000    23.4000    16.4000    11.7000     3.1000    -6.3000   -14.8000   -23.4000   -27.3000   -35.9000   -46.9000   -53.9000   -60.9000   -74.2000   -77.3000   -82.0000   -93.8000   -98.4000  -102.3000  -108.6000  -113.3000  -119.5000  -121.1000  -128.1000  -132.8000  -135.9000  -141.4000  -142.2000  -143.0000  -144.5000  -142.2000  -142.2000  -144.5000  -145.3000  -142.2000  -138.3000  -137.5000  -139.8000  -138.3000  -139.1000  -139.8000  -135.9000  -134.4000  -135.2000  -133.6000  -127.3000  -124.2000  -125.0000  -123.4000  -119.5000  -114.8000  -115.6000  -113.3000  -112.5000  -112.5000  -107.0000  -100.8000  -101.6000   -95.3000   -93.8000   -88.3000   -82.8000   -79.7000   -74.2000   -71.1000   -67.2000   -66.4000   -64.1000   -59.4000   -54.7000   -53.1000   -47.7000   -41.4000   -36.7000   -35.9000   -29.7000   -26.6000   -21.9000   -18.0000   -16.4000   -14.1000   -13.3000   -10.2000    -8.6000    -9.4000    -4.7000    -3.9000    -3.9000     1.6000     3.9000     8.6000    10.2000    11.7000    12.5000    16.4000    14.8000    16.4000    18.0000    22.7000    22.7000    25.8000    25.0000    28.1000    32.8000    34.4000    36.7000    34.4000    34.4000    35.9000    39.1000    41.4000    41.4000    40.6000    42.2000    41.4000    44.5000    43.8000    43.8000    45.3000    43.8000    44.5000    46.9000    47.7000    48.4000    48.4000    52.3000    50.8000    52.3000    56.3000    56.3000    52.3000    53.1000    53.9000    53.9000    56.3000    55.5000    56.3000    54.7000    57.0000    54.7000    57.8000    57.0000    53.1000    54.7000    57.0000    57.0000    57.0000    59.4000    60.2000    60.2000    58.6000    57.0000    57.0000    60.9000    60.9000    61.7000    63.3000    64.8000    67.2000    67.2000    64.8000    64.8000    67.2000    69.5000    68.0000    70.3000    71.1000    66.4000    67.2000    68.8000    70.3000    70.3000    69.5000    73.4000    73.4000    71.1000    72.7000    75.8000    75.0000    74.2000    74.2000    76.6000    76.6000    78.9000    82.8000    85.2000    83.6000    83.6000    85.9000    83.6000    85.2000    89.8000    89.1000    91.4000    93.8000    89.1000    90.6000    91.4000    89.1000    89.1000    87.5000    85.2000    85.9000    88.3000    90.6000    87.5000    87.5000    85.9000    85.2000    89.1000    88.3000    89.8000    89.8000    88.3000    89.8000    88.3000    85.9000    85.2000    83.6000    86.7000    85.9000    88.3000    87.5000    82.8000    82.8000    85.9000    83.6000    82.8000    81.3000    81.3000    79.7000    78.1000    81.3000    81.3000    76.6000    76.6000    76.6000    75.8000    78.1000    76.6000    78.1000    76.6000    75.0000    75.0000    76.6000    75.8000    72.7000    70.3000    70.3000    69.5000    69.5000    68.0000    67.2000    66.4000    61.7000    60.9000    64.8000    60.2000    52.3000    50.8000    53.1000    55.5000    51.6000    50.0000    47.7000    45.3000    44.5000    46.1000    46.1000    44.5000    39.1000    38.3000    36.7000    35.2000    32.0000    26.6000    24.2000    19.5000    14.8000    14.1000    14.1000    10.9000     3.9000     3.1000     0.8000    -2.3000    -3.9000    -6.3000   -10.2000   -12.5000   -14.1000   -14.8000   -19.5000   -28.1000   -31.3000   -32.0000   -37.5000   -39.8000   -39.8000   -46.9000   -48.4000   -50.0000   -50.8000   -51.6000   -53.9000   -54.7000   -57.0000   -63.3000   -67.2000   -69.5000   -74.2000   -78.1000   -79.7000   -81.3000   -82.8000   -85.2000   -86.7000   -88.3000   -90.6000   -92.2000   -91.4000   -96.1000   -95.3000   -94.5000  -100.0000  -101.6000  -103.1000  -109.4000  -112.5000  -107.0000  -104.7000  -109.4000  -108.6000  -103.9000  -109.4000  -110.9000  -107.8000  -110.9000  -110.2000  -110.2000  -111.7000  -112.5000  -112.5000  -110.2000  -110.9000  -110.9000  -114.1000  -110.9000  -110.9000  -112.5000  -112.5000  -114.8000  -110.9000  -107.0000  -111.7000  -110.9000  -106.3000  -105.5000  -107.8000  -108.6000  -107.0000  -109.4000  -110.9000  -108.6000  -111.7000  -115.6000  -110.9000  -110.9000  -111.7000  -109.4000  -110.9000  -115.6000  -116.4000  -115.6000  -118.8000  -121.9000  -121.9000  -128.1000  -130.5000  -131.3000  -132.8000  -135.2000  -137.5000  -138.3000  -143.0000  -146.9000  -146.1000  -150.8000  -154.7000  -160.2000  -164.1000  -169.5000  -177.3000  -175.0000  -174.2000  -173.4000  -170.3000  -171.1000  -168.8000  -160.2000  -149.2000  -135.2000  -118.0000  -100.0000   -78.9000   -61.7000   -43.0000   -17.2000     5.5000    25.8000    48.4000    71.1000    89.1000   108.6000   127.3000   147.7000   160.2000   171.1000   178.1000   182.8000   182.8000   178.9000   171.9000   161.7000   144.5000   123.4000    96.1000    67.2000    34.4000    -1.6000   -43.8000   -91.4000  -144.5000  -196.1000  -253.1000  -319.5000  -385.9000  -445.3000  -507.0000  -562.5000  -610.2000  -650.8000  -683.6000  -712.5000  -735.2000  -753.9000  -769.5000  -780.5000  -793.0000  -805.5000  -810.9000  -810.9000  -813.3000  -811.7000  -810.2000  -805.5000  -797.7000  -785.9000  -768.8000  -755.5000  -738.3000  -722.7000  -707.0000  -689.8000  -672.7000  -652.3000  -632.0000  -615.6000  -599.2000  -578.1000  -558.6000  -541.4000  -520.3000  -498.4000  -477.3000  -460.2000  -439.1000  -417.2000  -395.3000  -372.7000  -351.6000  -331.3000  -310.9000  -293.0000  -273.4000  -255.5000  -238.3000  -221.1000  -203.9000  -187.5000  -170.3000  -156.3000  -141.4000  -131.3000  -121.9000  -106.3000   -95.3000   -83.6000   -70.3000   -63.3000   -59.4000   -53.9000   -45.3000   -39.1000   -33.6000   -31.3000   -30.5000   -23.4000   -18.0000   -13.3000   -12.5000   -14.1000   -12.5000   -13.3000   -15.6000   -17.2000   -21.1000   -24.2000   -30.5000   -37.5000   -43.0000   -48.4000   -50.8000   -56.3000   -61.7000   -68.8000   -73.4000   -85.2000   -99.2000  -107.8000  -117.2000  -127.3000  -135.9000  -147.7000  -157.8000  -167.2000  -178.9000  -192.2000  -201.6000  -214.8000  -226.6000  -243.8000  -256.3000  -271.1000  -282.8000  -295.3000  -308.6000  -321.1000  -333.6000  -350.0000  -357.0000  -368.0000  -380.5000  -388.3000  -396.9000  -409.4000  -418.0000  -422.7000  -433.6000  -437.5000  -437.5000  -443.0000  -445.3000  -446.1000  -447.7000  -450.8000  -449.2000  -447.7000  -451.6000  -450.8000  -450.0000  -446.1000  -443.0000  -438.3000  -432.8000  -429.7000  -425.0000  -416.4000  -410.9000  -403.9000  -392.2000  -382.8000  -376.6000  -368.8000  -359.4000  -350.0000  -346.9000  -336.7000  -325.0000  -314.8000  -304.7000  -296.1000  -287.5000  -277.3000  -264.1000  -251.6000  -245.3000  -235.2000  -228.9000  -218.0000  -208.6000  -196.1000  -185.2000  -176.6000  -168.0000  -156.3000  -141.4000  -131.3000  -121.1000  -108.6000  -100.8000   -89.1000   -81.3000   -74.2000   -64.8000   -58.6000   -48.4000   -37.5000   -30.5000   -21.1000    -9.4000     1.6000    11.7000    16.4000    23.4000    26.6000    30.5000    36.7000    47.7000    57.0000    62.5000    65.6000    73.4000    80.5000    90.6000    97.7000   103.9000   104.7000   110.2000   114.8000   118.0000   122.7000   128.1000   132.0000   134.4000   136.7000   139.8000   140.6000   145.3000   148.4000   154.7000   159.4000   163.3000   165.6000   165.6000   166.4000   172.7000   171.9000   173.4000   172.7000   177.3000   181.3000   179.7000   181.3000   184.4000   188.3000   189.1000   193.0000   190.6000   193.0000   196.1000   196.9000   200.0000   200.8000   199.2000   202.3000   202.3000   201.6000   200.0000   207.0000   206.3000   206.3000   209.4000   207.0000   212.5000   216.4000   213.3000   214.1000   215.6000   212.5000   210.9000   214.8000   218.8000   216.4000   215.6000   218.0000   219.5000   219.5000   217.2000   221.1000   225.8000   222.7000   221.9000   225.8000   225.0000   225.0000   224.2000   223.4000   225.0000   225.8000   225.8000   226.6000   227.3000   229.7000   229.7000   229.7000   228.1000   232.0000   231.3000   232.0000   233.6000   234.4000   227.3000   227.3000   230.5000   232.0000   229.7000   227.3000   228.1000   226.6000   229.7000   226.6000   225.8000   224.2000   221.9000   220.3000   220.3000   218.0000   213.3000   207.0000   212.5000   213.3000   208.6000   211.7000   208.6000   209.4000   211.7000   216.4000   221.1000   221.1000   223.4000   231.3000   236.7000   238.3000   235.9000   241.4000   245.3000   246.9000   252.3000   250.8000   253.9000   255.5000   253.1000   256.3000   256.3000   254.7000   256.3000   253.9000   253.1000   254.7000   251.6000   243.8000   233.6000   230.5000   228.1000   224.2000   222.7000   213.3000   205.5000   196.1000   187.5000   182.8000   168.0000   157.0000   147.7000   141.4000   127.3000   114.1000   101.6000    91.4000    79.7000    71.1000    56.3000    44.5000    32.0000    21.1000    13.3000     4.7000    -3.9000   -15.6000   -23.4000   -29.7000   -39.8000   -48.4000   -51.6000   -60.2000   -71.1000   -78.1000   -79.7000   -83.6000   -89.1000   -93.0000   -96.1000   -96.1000   -97.7000  -100.8000  -100.8000  -100.8000   -97.7000  -105.5000  -108.6000  -107.8000  -107.8000  -113.3000  -112.5000  -114.8000  -113.3000  -112.5000  -109.4000  -107.0000  -103.9000  -101.6000   -99.2000   -99.2000  -100.0000   -99.2000   -96.1000   -94.5000   -93.8000   -93.8000   -91.4000   -89.8000   -86.7000   -82.8000   -80.5000   -72.7000   -71.9000   -69.5000   -69.5000   -68.8000   -70.3000   -65.6000   -62.5000   -59.4000   -60.2000   -59.4000   -54.7000   -52.3000   -50.0000   -48.4000   -45.3000   -43.0000   -41.4000   -39.8000   -41.4000   -39.1000   -35.9000   -35.2000   -32.0000   -31.3000   -27.3000   -27.3000   -23.4000   -19.5000   -20.3000   -19.5000   -17.2000   -16.4000   -16.4000   -14.1000   -14.8000   -11.7000   -13.3000   -11.7000    -8.6000    -6.3000    -3.9000    -2.3000    -7.0000    -7.0000    -6.3000    -7.8000    -5.5000    -5.5000    -3.9000    -2.3000     2.3000     0.0000    -0.8000     0.0000    -4.7000    -4.7000    -3.9000    -6.3000    -5.5000    -7.8000    -4.7000    -3.1000    -5.5000    -4.7000    -3.1000    -7.8000    -7.8000    -7.0000   -12.5000   -14.1000   -10.9000   -11.7000   -12.5000   -14.1000   -15.6000   -13.3000   -13.3000   -15.6000   -19.5000   -18.0000   -22.7000   -23.4000   -22.7000   -25.0000   -25.0000   -26.6000   -21.1000   -25.0000   -28.1000   -31.3000   -34.4000   -35.9000   -35.9000   -35.2000   -36.7000   -33.6000   -36.7000   -41.4000   -41.4000   -43.0000   -43.0000   -43.0000   -45.3000   -46.1000   -44.5000   -46.9000   -48.4000   -46.9000   -44.5000   -40.6000   -45.3000   -52.3000   -53.1000   -53.1000   -55.5000   -52.3000   -51.6000   -54.7000   -58.6000   -57.8000   -57.0000   -55.5000   -56.3000   -56.3000   -59.4000   -60.9000   -62.5000   -66.4000   -66.4000   -68.0000   -66.4000   -63.3000   -68.8000   -71.9000   -68.8000   -70.3000   -71.9000   -73.4000   -75.8000   -78.1000   -78.1000   -79.7000   -80.5000   -78.1000   -79.7000   -78.1000   -75.0000   -81.3000   -85.2000   -82.8000   -83.6000   -87.5000   -86.7000   -86.7000   -93.0000   -92.2000   -89.8000   -91.4000   -88.3000   -86.7000   -88.3000   -88.3000   -90.6000   -88.3000   -92.2000   -91.4000   -92.2000   -96.9000   -93.8000   -94.5000   -93.8000   -93.0000   -93.0000   -87.5000   -85.9000   -91.4000   -93.8000   -96.9000   -97.7000   -92.2000   -94.5000   -96.9000   -97.7000   -95.3000   -91.4000   -90.6000   -89.8000   -91.4000   -93.0000   -91.4000   -93.0000   -95.3000   -96.1000   -96.9000   -93.0000   -91.4000   -91.4000   -92.2000   -89.8000   -90.6000   -87.5000   -88.3000   -93.0000   -92.2000   -92.2000   -96.9000   -99.2000   -94.5000   -95.3000   -98.4000  -100.0000   -95.3000   -98.4000   -99.2000   -97.7000  -101.6000  -103.9000  -107.8000  -106.3000  -107.0000  -107.8000  -111.7000  -111.7000  -110.9000  -110.2000  -114.1000  -114.8000  -117.2000  -118.8000  -117.2000  -120.3000  -122.7000  -125.8000  -125.8000  -124.2000  -121.9000  -124.2000  -124.2000  -122.7000  -122.7000  -123.4000  -121.9000  -123.4000  -123.4000  -125.0000  -125.8000  -125.8000  -125.8000  -127.3000  -125.8000  -125.0000  -124.2000  -125.8000  -126.6000  -126.6000  -128.9000  -128.1000  -126.6000  -127.3000  -128.1000  -127.3000  -126.6000  -124.2000  -125.8000  -125.8000  -125.0000  -125.8000  -127.3000  -124.2000  -124.2000  -125.0000  -124.2000  -125.8000  -127.3000  -131.3000  -128.1000  -128.1000  -126.6000  -125.8000  -125.8000  -128.9000  -126.6000  -125.8000  -124.2000  -125.8000  -125.8000  -128.9000  -128.1000  -125.0000  -121.9000  -119.5000  -123.4000  -123.4000  -121.9000  -123.4000  -122.7000  -123.4000  -122.7000  -123.4000  -124.2000  -125.0000  -125.8000  -124.2000  -122.7000  -120.3000  -120.3000  -114.8000  -115.6000  -114.1000  -117.2000  -114.8000  -114.1000  -115.6000  -115.6000  -113.3000  -114.1000  -110.9000  -108.6000  -105.5000  -107.0000  -105.5000  -102.3000  -102.3000  -103.1000   -96.9000   -97.7000  -101.6000  -101.6000  -100.0000   -96.9000   -96.9000   -99.2000   -94.5000   -95.3000   -96.1000   -95.3000   -94.5000   -92.2000   -89.1000   -91.4000   -91.4000   -90.6000   -90.6000   -89.8000   -90.6000   -88.3000   -88.3000   -90.6000   -86.7000   -85.9000   -84.4000   -85.2000   -82.0000   -85.2000   -83.6000   -81.3000   -81.3000   -86.7000   -83.6000   -84.4000   -82.8000   -83.6000   -83.6000   -83.6000   -80.5000   -80.5000   -79.7000   -81.3000   -80.5000   -78.1000   -78.1000   -79.7000   -78.1000   -77.3000   -78.1000   -74.2000   -74.2000   -72.7000   -71.1000   -72.7000   -73.4000   -67.2000   -66.4000   -65.6000   -65.6000   -64.8000   -60.2000   -57.0000   -53.1000   -49.2000   -48.4000   -49.2000   -46.1000   -46.9000   -45.3000   -43.8000   -43.8000   -43.8000   -45.3000   -42.2000   -39.1000   -39.8000   -38.3000   -40.6000   -36.7000   -36.7000   -33.6000   -35.2000   -33.6000   -34.4000   -35.9000   -34.4000   -38.3000   -35.2000   -34.4000   -40.6000   -39.8000   -35.2000   -41.4000   -39.1000   -38.3000   -39.1000   -40.6000   -41.4000   -40.6000   -43.8000   -45.3000   -47.7000   -47.7000   -49.2000   -56.3000   -58.6000   -60.2000   -64.1000   -60.2000   -61.7000   -63.3000   -65.6000   -68.0000   -74.2000   -75.8000   -71.9000   -72.7000   -73.4000   -71.1000   -70.3000   -71.1000   -66.4000   -65.6000   -67.2000   -68.0000   -67.2000   -67.2000   -69.5000   -65.6000   -64.1000   -64.8000   -63.3000   -64.1000   -60.2000   -58.6000   -57.0000   -55.5000   -55.5000   -53.1000   -54.7000   -53.9000   -49.2000   -47.7000   -43.8000   -42.2000   -40.6000   -37.5000   -37.5000   -33.6000   -32.8000   -32.0000   -28.1000   -25.0000   -24.2000   -21.1000   -14.1000   -11.7000    -9.4000    -9.4000    -6.3000    -6.3000    -3.9000    -0.8000     4.7000     3.1000     7.8000     8.6000    10.2000    13.3000    17.2000    18.0000    19.5000    23.4000    27.3000    22.7000    29.7000    32.8000    33.6000    36.7000    37.5000    39.8000    41.4000    42.2000    45.3000    47.7000    52.3000    54.7000    56.3000    56.3000    61.7000    59.4000    64.1000    63.3000    60.2000    62.5000    64.1000    66.4000    64.1000    64.8000    63.3000    66.4000    66.4000    67.2000    66.4000    64.8000    63.3000    64.8000    65.6000    64.8000    65.6000    64.8000    60.9000    60.9000    61.7000    58.6000    56.3000    55.5000    53.1000    50.8000    48.4000    44.5000    43.0000    41.4000    37.5000    32.8000    32.0000    22.7000    16.4000    15.6000    10.2000     4.7000     1.6000    -4.7000    -9.4000   -10.9000   -15.6000   -25.8000   -31.3000   -38.3000   -40.6000   -44.5000   -53.9000   -61.7000   -68.0000   -71.1000   -75.0000   -81.3000   -85.2000   -91.4000  -100.8000  -103.9000  -113.3000  -122.7000  -124.2000  -128.9000  -138.3000  -143.8000  -148.4000  -153.1000  -159.4000  -168.0000  -172.7000  -178.1000  -182.8000  -188.3000  -195.3000  -201.6000  -209.4000  -213.3000  -217.2000  -223.4000  -229.7000  -232.8000  -235.9000  -237.5000  -240.6000  -244.5000  -245.3000  -246.1000  -250.8000  -253.1000  -252.3000  -255.5000  -257.0000  -257.8000  -258.6000  -258.6000  -260.2000  -260.2000  -257.0000  -258.6000  -264.1000  -263.3000  -263.3000  -260.2000  -259.4000  -254.7000  -256.3000  -260.2000  -255.5000  -252.3000  -246.1000  -244.5000  -241.4000  -239.8000  -239.8000  -239.1000  -241.4000  -238.3000  -236.7000  -232.8000  -230.5000  -226.6000  -225.8000  -221.1000  -217.2000  -215.6000  -215.6000  -218.0000  -214.8000  -213.3000  -211.7000  -210.2000  -210.2000  -207.8000  -207.0000  -203.9000  -201.6000  -199.2000  -194.5000  -193.0000  -189.1000  -189.1000  -189.1000  -186.7000  -180.5000  -178.9000  -176.6000  -168.8000  -170.3000  -168.8000  -165.6000  -164.1000  -164.1000  -160.9000  -153.1000  -151.6000  -143.0000  -138.3000  -138.3000  -135.9000  -133.6000  -126.6000  -121.1000  -121.9000  -120.3000  -119.5000  -117.2000  -109.4000  -104.7000  -102.3000   -98.4000   -95.3000   -93.0000   -92.2000   -86.7000   -85.2000   -79.7000   -78.9000   -78.1000   -75.8000   -75.8000   -70.3000   -66.4000   -64.8000   -59.4000   -58.6000   -57.8000   -52.3000   -50.0000   -49.2000   -49.2000   -48.4000   -47.7000   -45.3000   -41.4000   -42.2000   -40.6000   -39.8000   -36.7000   -35.9000   -35.2000   -35.2000   -32.8000   -33.6000   -30.5000   -28.9000   -28.1000   -25.8000   -25.8000   -25.0000   -21.1000   -22.7000   -21.1000   -18.8000   -18.0000   -19.5000   -20.3000   -18.0000   -16.4000   -17.2000   -18.0000   -16.4000   -16.4000   -16.4000   -15.6000   -19.5000   -19.5000   -20.3000   -18.0000   -15.6000   -14.8000   -21.1000   -18.8000   -18.0000   -20.3000   -19.5000   -21.9000   -21.9000   -21.1000   -20.3000   -23.4000   -23.4000   -18.8000   -20.3000   -20.3000   -25.8000   -28.1000   -28.1000   -29.7000   -29.7000   -27.3000   -29.7000   -28.9000   -28.9000   -31.3000   -32.8000   -32.0000   -38.3000   -35.9000   -34.4000   -35.9000   -35.9000   -33.6000   -35.9000   -39.1000   -41.4000   -46.9000   -40.6000   -41.4000   -40.6000   -43.0000   -41.4000   -41.4000   -43.8000   -44.5000   -46.9000   -50.0000   -47.7000   -49.2000   -50.8000   -51.6000   -50.8000   -52.3000   -51.6000   -53.1000   -53.1000   -54.7000   -54.7000   -54.7000   -58.6000   -63.3000   -62.5000   -60.9000   -61.7000   -65.6000   -64.1000   -66.4000   -66.4000   -67.2000   -67.2000   -65.6000   -68.0000   -67.2000   -69.5000   -71.9000   -71.9000   -73.4000   -78.9000   -75.0000   -78.1000   -76.6000   -75.0000   -75.0000   -76.6000   -77.3000   -79.7000   -81.3000   -78.9000   -80.5000   -85.2000   -83.6000   -80.5000   -84.4000   -85.9000   -86.7000   -86.7000   -85.9000   -89.1000   -89.1000   -84.4000   -85.9000   -85.9000   -84.4000   -88.3000   -90.6000   -89.8000   -90.6000   -89.1000   -92.2000   -91.4000   -89.8000   -89.8000   -89.8000   -89.1000   -89.1000   -91.4000   -92.2000   -93.0000   -93.8000   -91.4000   -91.4000   -94.5000   -98.4000   -96.9000   -91.4000   -86.7000   -84.4000   -77.3000   -73.4000   -64.1000   -50.0000   -33.6000   -14.1000     6.3000    24.2000    43.8000    60.9000    82.0000   103.9000   119.5000   133.6000   153.1000   169.5000   182.0000   198.4000   211.7000   223.4000   230.5000   234.4000   231.3000   225.8000   210.9000   199.2000   179.7000   152.3000   120.3000    88.3000    53.9000    11.7000   -39.1000   -94.5000  -150.0000  -212.5000  -278.1000  -349.2000  -419.5000  -490.6000  -558.6000  -618.8000  -669.5000  -718.8000  -758.6000  -783.6000  -807.8000  -828.9000  -847.7000  -865.6000  -882.0000  -891.4000  -897.7000  -910.9000  -912.5000  -911.7000  -910.9000  -906.3000  -899.2000  -889.8000  -876.6000  -864.8000  -850.0000  -835.2000  -821.9000  -803.1000  -787.5000  -768.0000  -746.1000  -727.3000  -708.6000  -689.1000  -668.8000  -644.5000  -624.2000  -601.6000  -580.5000  -557.0000  -536.7000  -518.0000  -500.8000  -474.2000  -453.1000  -435.9000  -418.0000  -393.0000  -372.7000  -353.1000  -332.0000  -318.8000  -305.5000  -287.5000  -273.4000  -258.6000  -244.5000  -232.8000  -218.8000  -203.9000  -193.0000  -180.5000  -166.4000  -158.6000  -146.9000  -135.2000  -125.0000  -114.1000  -106.3000   -96.1000   -85.9000   -78.1000   -72.7000   -67.2000   -62.5000   -51.6000   -42.2000   -33.6000   -29.7000   -21.9000   -14.8000    -5.5000     1.6000     8.6000    13.3000    21.1000    25.8000    30.5000    32.8000    41.4000    50.0000    56.3000    61.7000    68.0000    74.2000    78.1000    83.6000    89.1000    94.5000    97.7000    98.4000   102.3000   106.3000   108.6000   110.9000   114.8000   114.1000   119.5000   125.0000   126.6000   130.5000   133.6000   135.9000   139.1000   143.8000   145.3000   145.3000   146.9000   147.7000   150.0000   152.3000   155.5000   154.7000   156.3000   157.0000   153.9000   160.2000   162.5000   163.3000   164.1000   164.1000   166.4000   168.8000   171.1000   170.3000   169.5000   172.7000   176.6000   180.5000   184.4000   182.8000   181.3000   181.3000   181.3000   182.8000   183.6000   189.1000   192.2000   189.1000   191.4000   193.8000   192.2000   193.0000   192.2000   193.0000   191.4000   190.6000   195.3000   194.5000   194.5000   189.8000   191.4000   192.2000   195.3000   195.3000   192.2000   194.5000   189.8000   190.6000   193.0000   191.4000   189.1000   193.0000   196.1000   197.7000   198.4000   200.0000   199.2000   200.8000   199.2000   198.4000   198.4000   200.0000   200.8000   199.2000   194.5000   201.6000   202.3000   201.6000   199.2000   196.9000   198.4000   200.8000   203.1000   205.5000   202.3000   203.1000   196.9000   199.2000   203.9000   199.2000   194.5000   194.5000   195.3000   193.8000   189.1000   185.9000   187.5000   182.8000   182.8000   183.6000   182.8000   175.8000   178.1000   178.1000   173.4000   170.3000   168.0000   165.6000   163.3000   160.2000   162.5000   164.1000   160.2000   155.5000   155.5000   154.7000   153.1000   150.8000   150.0000   147.7000   142.2000   139.8000   141.4000   137.5000   135.9000   130.5000   131.3000   131.3000   129.7000   127.3000   128.9000   127.3000   125.0000   126.6000   127.3000   121.9000   119.5000   117.2000   116.4000   118.0000   115.6000   110.9000   112.5000   110.2000   108.6000   109.4000   108.6000   103.9000   101.6000    97.7000    97.7000    96.1000    94.5000    89.8000    86.7000    86.7000    85.9000    83.6000    82.0000    78.9000    79.7000    78.9000    75.8000    76.6000    74.2000    73.4000    71.1000    73.4000    71.1000    68.0000    65.6000    63.3000    64.1000    62.5000    57.8000    58.6000    59.4000    55.5000    56.3000    53.1000    52.3000    45.3000    46.9000    49.2000    47.7000    46.1000    48.4000    48.4000    51.6000    53.1000    55.5000    58.6000    60.9000    60.9000    66.4000    71.9000    72.7000    74.2000    80.5000    84.4000    85.9000    92.2000    95.3000    97.7000   103.1000   106.3000   114.1000   117.2000   117.2000   120.3000   122.7000   124.2000   124.2000   126.6000   128.9000   124.2000   121.1000   119.5000   115.6000   114.1000   105.5000   101.6000    96.9000    89.1000    82.8000    75.0000    68.8000    62.5000    50.8000    40.6000    32.8000    23.4000    14.1000     2.3000    -4.7000   -14.1000   -23.4000   -34.4000   -46.1000   -53.1000   -58.6000   -69.5000   -76.6000   -86.7000   -94.5000   -98.4000  -107.0000  -118.0000  -127.3000  -131.3000  -137.5000  -147.7000  -153.1000  -153.9000  -155.5000  -161.7000  -168.0000  -169.5000  -171.1000  -173.4000  -177.3000  -181.3000  -185.2000  -188.3000  -193.0000  -196.1000  -194.5000  -198.4000  -198.4000  -200.8000  -202.3000  -204.7000  -206.3000  -208.6000  -210.9000  -214.8000  -216.4000  -218.0000  -219.5000  -222.7000  -218.8000  -220.3000  -225.0000  -231.3000  -232.0000  -231.3000  -232.8000  -233.6000  -233.6000  -235.9000  -240.6000  -240.6000  -243.8000  -246.1000  -248.4000  -247.7000  -253.1000  -254.7000  -257.8000  -262.5000  -262.5000  -263.3000  -268.0000  -272.7000  -274.2000  -275.8000  -275.8000  -280.5000  -284.4000  -284.4000  -287.5000  -293.0000  -291.4000  -293.8000  -295.3000  -299.2000  -301.6000  -306.3000  -311.7000  -313.3000  -314.1000  -316.4000  -318.0000  -324.2000  -324.2000  -325.0000  -321.9000  -323.4000  -323.4000  -325.0000  -324.2000  -325.0000  -323.4000  -319.5000  -319.5000  -318.0000  -315.6000  -315.6000  -316.4000  -312.5000  -307.8000  -304.7000  -300.0000  -296.1000  -290.6000  -283.6000  -281.3000  -275.8000  -271.9000  -264.1000  -261.7000  -258.6000  -252.3000  -246.9000  -241.4000  -237.5000  -237.5000  -234.4000  -227.3000  -221.1000  -219.5000  -218.0000  -211.7000  -210.9000  -205.5000  -204.7000  -203.1000  -200.8000  -199.2000  -197.7000  -196.9000  -192.2000  -182.8000  -182.0000  -181.3000  -179.7000  -175.8000  -168.0000  -162.5000  -160.2000  -157.0000  -155.5000  -151.6000  -149.2000  -147.7000  -141.4000  -137.5000  -133.6000  -131.3000  -125.8000  -122.7000  -121.1000  -113.3000  -109.4000  -108.6000  -106.3000  -103.9000  -102.3000   -96.9000   -89.8000   -84.4000   -82.0000   -79.7000   -78.1000   -77.3000   -75.8000   -71.9000   -66.4000   -60.9000   -61.7000   -60.9000   -60.2000   -59.4000   -56.3000   -55.5000   -52.3000   -50.8000   -49.2000   -45.3000   -41.4000   -39.1000   -34.4000   -34.4000   -33.6000   -33.6000   -34.4000   -32.0000   -29.7000   -28.1000   -25.0000   -24.2000   -19.5000   -17.2000   -16.4000   -14.1000    -8.6000    -7.0000    -7.8000    -6.3000    -5.5000    -3.9000    -1.6000     3.9000     6.3000     7.8000     6.3000    10.9000    17.2000    18.8000    21.9000    21.9000    25.0000    25.8000    25.0000    22.7000    21.9000    25.8000    22.7000    22.7000    24.2000    29.7000    31.3000    32.0000    33.6000    37.5000    40.6000    43.0000    43.8000    46.1000    50.8000    56.3000    59.4000    57.8000    60.2000    66.4000    65.6000    65.6000    64.1000    64.1000    68.8000    66.4000    71.1000    76.6000    77.3000    79.7000    81.3000    83.6000    85.9000    87.5000    91.4000    90.6000    92.2000    96.1000    95.3000    97.7000    96.9000    98.4000   103.1000   106.3000   106.3000   103.9000   106.3000   109.4000   107.0000   105.5000   101.6000   104.7000   106.3000   107.0000   107.0000   104.7000   104.7000   103.1000   103.9000   100.0000    96.9000    97.7000    95.3000    87.5000    82.8000    71.9000    61.7000    53.9000    46.1000    36.7000    25.0000     8.6000    -3.1000   -14.8000   -25.8000   -36.7000   -46.1000   -54.7000   -67.2000   -70.3000   -75.0000   -80.5000   -85.9000   -91.4000   -96.9000  -103.1000  -105.5000  -112.5000  -116.4000  -123.4000  -130.5000  -140.6000  -150.0000  -158.6000  -164.8000  -171.1000  -178.1000  -191.4000  -200.0000  -209.4000  -218.8000  -228.1000  -238.3000  -250.8000  -256.3000  -261.7000  -267.2000  -272.7000  -278.1000  -289.8000  -299.2000  -306.3000  -312.5000  -325.0000  -337.5000  -353.9000  -366.4000  -381.3000  -395.3000  -408.6000  -417.2000  -428.1000  -436.7000  -443.0000  -449.2000  -457.0000  -463.3000  -468.0000  -472.7000  -472.7000  -475.8000  -477.3000  -478.1000  -478.1000  -476.6000  -475.0000  -469.5000  -464.8000  -459.4000  -452.3000  -444.5000  -437.5000  -429.7000  -425.0000  -411.7000  -402.3000  -393.0000  -382.0000  -373.4000  -370.3000  -360.2000  -347.7000  -340.6000  -329.7000  -319.5000  -310.2000  -298.4000  -287.5000  -275.0000  -266.4000  -258.6000  -256.3000  -243.8000  -233.6000  -228.9000  -223.4000  -218.8000  -217.2000  -212.5000  -208.6000  -207.0000  -205.5000  -203.9000  -201.6000  -198.4000  -199.2000  -196.9000  -193.8000  -193.8000  -192.2000  -193.0000  -192.2000  -191.4000  -188.3000  -185.9000  -188.3000  -184.4000  -180.5000  -182.8000  -183.6000  -175.8000  -172.7000  -167.2000  -164.8000  -161.7000  -155.5000  -151.6000  -150.8000  -143.8000  -144.5000  -141.4000  -138.3000  -134.4000  -132.8000  -125.8000  -121.9000  -126.6000  -126.6000  -123.4000  -120.3000  -116.4000  -118.0000  -114.1000  -112.5000  -113.3000  -115.6000  -116.4000  -112.5000  -110.9000  -110.2000  -107.8000  -101.6000   -96.9000   -85.9000   -74.2000   -60.9000   -39.8000    -8.6000    28.1000    68.8000   114.1000   162.5000   226.6000   296.1000   368.8000   446.9000   529.7000   609.4000   695.3000   778.9000   855.5000   931.3000  1013.3000  1094.5000  1176.6000  1256.3000  1326.6000  1393.8000  1460.2000  1523.4000  1592.2000  1654.7000  1714.1000  1771.9000  1830.5000  1887.5000  1943.0000  1990.6000  2031.3000  2066.4000  2099.2000  2114.8000  2126.6000  2134.4000  2133.6000  2115.6000  2085.9000  2036.7000  1977.3000  1910.2000  1829.7000  1736.7000  1632.8000  1525.8000  1408.6000  1267.2000  1110.9000   938.3000   743.0000   529.7000   300.0000    48.4000  -217.2000  -505.5000  -818.0000 -1156.3000 -1514.1000 -1884.4000 -2275.0000 -2681.3000 -3088.3000 -3482.8000 -3858.6000 -4210.9000 -4531.3000 -4814.1000 -5057.0000 -5272.7000 -5461.7000 -5614.1000 -5726.6000 -5798.4000 -5850.0000 -5861.7000 -5835.2000 -5782.0000 -5711.7000 -5621.9000 -5518.8000 -5396.9000 -5268.8000 -5128.9000 -4970.3000 -4803.1000 -4627.3000 -4450.8000 -4275.0000 -4098.4000 -3924.2000 -3745.3000 -3567.2000 -3389.8000 -3213.3000 -3043.0000 -2871.1000 -2700.0000 -2536.7000 -2370.3000 -2205.5000 -2047.7000 -1890.6000 -1741.4000 -1596.1000 -1460.2000 -1324.2000 -1194.5000 -1068.8000  -953.1000  -839.8000  -731.3000  -629.7000  -532.8000  -439.8000  -357.0000  -274.2000  -196.1000  -125.8000   -60.2000     3.9000    62.5000   119.5000   171.1000   214.8000   256.3000   294.5000   329.7000   360.2000   391.4000   423.4000   454.7000   484.4000   510.2000   531.3000   556.3000   574.2000   594.5000   615.6000   632.8000   647.7000   665.6000   682.0000   695.3000   712.5000   725.8000   738.3000   748.4000   760.9000   773.4000   786.7000   794.5000   799.2000   809.4000   818.8000   824.2000   831.3000   837.5000   841.4000   848.4000   855.5000   860.9000   867.2000   873.4000   871.9000   872.7000   875.0000   876.6000   879.7000   882.0000   881.3000   876.6000   876.6000   875.8000   871.9000   868.0000   861.7000   855.5000   850.0000   841.4000   831.3000   823.4000   813.3000   803.1000   794.5000   782.0000   770.3000   755.5000   741.4000   727.3000   714.1000   698.4000   680.5000   670.3000   659.4000   643.8000   625.0000   615.6000   603.9000   587.5000   570.3000   555.5000   542.2000   525.0000   510.9000   498.4000   489.8000   477.3000   463.3000   453.9000   443.8000   432.8000   424.2000   418.8000   413.3000   403.9000   400.8000   400.0000   391.4000   385.2000   378.1000   376.6000   375.0000   371.1000   369.5000   364.1000   361.7000   357.8000   354.7000   357.8000   360.9000   357.8000   357.8000   359.4000   360.9000   360.2000   357.8000   357.8000   360.9000   364.8000   368.0000   368.0000   370.3000   373.4000   376.6000   382.0000   385.2000   387.5000   391.4000   396.1000   400.8000   403.1000   404.7000   406.3000   408.6000   409.4000   411.7000   414.1000   414.1000   414.8000   414.1000   414.8000   414.8000   417.2000   418.0000   418.8000   418.0000   413.3000   418.0000   419.5000   421.9000   420.3000   420.3000   423.4000   421.1000   422.7000   425.0000   424.2000   425.0000   425.0000   428.9000   431.3000   430.5000   428.1000   428.9000   429.7000   429.7000   429.7000   425.8000   424.2000   425.0000   422.7000   423.4000   425.8000   426.6000   421.9000   423.4000   421.9000   421.1000   419.5000   422.7000   421.9000   421.1000   420.3000   418.8000   418.8000   421.9000   418.8000   418.0000   418.0000   418.0000   418.0000   414.1000   411.7000   414.1000   418.0000   412.5000   414.1000   412.5000   412.5000   416.4000   417.2000   411.7000   410.2000   413.3000   414.8000   414.1000   414.1000   407.8000   410.2000   415.6000   414.8000   410.2000   411.7000   411.7000   412.5000   414.1000   415.6000   418.0000   414.1000   411.7000   410.9000   413.3000   416.4000   412.5000   414.1000   414.8000   413.3000   413.3000   411.7000   407.8000   404.7000   401.6000   403.1000   402.3000   402.3000   397.7000   393.8000   393.8000   396.9000   396.1000   393.0000   388.3000   388.3000   389.8000   385.9000   384.4000   380.5000   378.9000   376.6000   379.7000   379.7000   375.0000   370.3000   367.2000   366.4000   364.8000   362.5000   362.5000   360.9000   357.0000   357.0000   356.3000   352.3000   351.6000   347.7000   345.3000   344.5000   341.4000   341.4000   341.4000   336.7000   332.8000   328.9000   327.3000   325.8000   320.3000   318.8000   314.1000   308.6000   310.2000   307.0000   296.9000   293.8000   291.4000   290.6000   288.3000   283.6000   277.3000   276.6000   275.8000   272.7000   272.7000   269.5000   268.8000   264.8000   259.4000   257.0000   253.9000   253.1000   247.7000   242.2000   239.1000   232.8000   227.3000   221.9000   220.3000   213.3000   209.4000   206.3000   204.7000   202.3000   195.3000   189.1000   184.4000   181.3000   178.1000   173.4000   168.8000   166.4000   167.2000   164.8000   160.9000   159.4000   152.3000   146.9000   143.8000   139.8000   139.1000   139.8000   139.1000   139.1000   143.8000   150.0000   160.2000   170.3000   181.3000   199.2000   220.3000   240.6000   259.4000   276.6000   293.0000   312.5000   331.3000   343.8000   359.4000   376.6000   391.4000   407.0000   416.4000   425.0000   432.8000   439.1000   441.4000   442.2000   438.3000   427.3000   410.9000   389.8000   367.2000   336.7000   300.8000   259.4000   213.3000   162.5000   109.4000    53.9000    -8.6000   -75.0000  -146.1000  -218.0000  -286.7000  -346.1000  -399.2000  -450.0000  -491.4000  -521.9000  -547.7000  -575.0000  -596.9000  -614.8000  -632.8000  -649.2000  -657.0000  -666.4000  -671.1000  -674.2000  -675.8000  -675.0000  -675.0000  -668.8000  -657.8000  -649.2000  -635.2000  -624.2000  -613.3000  -600.8000  -588.3000  -571.1000  -559.4000  -547.7000  -532.8000  -519.5000  -505.5000  -489.1000  -474.2000  -460.9000  -446.9000  -430.5000  -412.5000  -396.9000  -378.9000  -360.9000  -346.1000  -330.5000  -314.1000  -299.2000  -290.6000  -275.8000  -264.1000  -251.6000  -238.3000  -226.6000  -216.4000  -204.7000  -189.8000  -178.1000  -171.9000  -163.3000  -153.1000  -142.2000  -134.4000  -130.5000  -125.0000  -118.8000  -116.4000  -111.7000  -107.0000  -103.1000   -98.4000   -94.5000   -93.8000   -89.8000   -88.3000   -89.1000   -88.3000   -89.8000   -92.2000   -94.5000   -96.9000   -96.1000   -96.1000   -92.2000   -91.4000   -94.5000   -94.5000   -93.0000   -88.3000   -87.5000   -85.9000   -83.6000   -85.9000   -81.3000   -80.5000   -73.4000   -66.4000   -66.4000   -64.8000   -68.0000   -68.8000   -70.3000   -70.3000   -69.5000   -72.7000   -78.1000   -80.5000   -83.6000   -85.9000   -88.3000   -90.6000   -95.3000  -103.9000  -109.4000  -116.4000  -122.7000  -128.1000  -137.5000  -147.7000  -156.3000  -166.4000  -179.7000  -188.3000  -191.4000  -201.6000  -210.9000  -219.5000  -232.8000  -245.3000  -255.5000  -264.8000  -276.6000  -285.9000  -294.5000  -306.3000  -315.6000  -320.3000  -329.7000  -334.4000  -338.3000  -346.1000  -353.9000  -359.4000  -364.1000  -367.2000  -371.1000  -374.2000  -376.6000  -379.7000  -385.9000  -385.9000  -381.3000  -384.4000  -381.3000  -382.0000  -384.4000  -382.0000  -382.0000  -382.0000  -378.1000  -378.1000  -373.4000  -369.5000  -369.5000  -363.3000  -358.6000  -356.3000  -351.6000  -346.9000  -341.4000  -334.4000  -326.6000  -318.0000  -312.5000  -305.5000  -295.3000  -290.6000  -283.6000  -271.9000  -264.1000  -257.8000  -250.8000  -244.5000  -236.7000  -227.3000  -218.8000  -206.3000  -199.2000  -193.0000  -183.6000  -176.6000  -171.9000  -165.6000  -156.3000  -150.0000  -144.5000  -130.5000  -122.7000  -114.8000  -107.0000   -99.2000   -92.2000   -83.6000   -78.1000   -71.1000   -66.4000   -60.9000   -57.0000   -52.3000   -44.5000   -40.6000   -35.2000   -28.9000   -25.8000   -20.3000   -14.1000   -10.9000    -9.4000    -6.3000    -2.3000     0.0000     5.5000     4.7000    11.7000    14.8000    14.1000    15.6000    21.1000    24.2000    25.0000    30.5000    29.7000    29.7000    31.3000    34.4000    37.5000    39.8000    40.6000    43.0000    46.1000    45.3000    43.0000    46.9000    47.7000    48.4000    50.0000    48.4000    50.8000    53.9000    48.4000    48.4000    50.8000    50.0000    54.7000    58.6000    62.5000    59.4000    57.8000    63.3000    65.6000    66.4000    67.2000    67.2000    70.3000    75.0000    73.4000    76.6000    78.1000    80.5000    81.3000    88.3000    88.3000    93.0000    96.9000    95.3000    98.4000   103.9000   103.9000   104.7000   107.0000   105.5000   109.4000   114.8000   114.8000   113.3000   117.2000   118.0000   121.1000   122.7000   123.4000   119.5000   121.9000   121.9000   125.0000   125.8000   127.3000   126.6000   126.6000   130.5000   129.7000   129.7000   129.7000   130.5000   130.5000   132.0000   133.6000   135.2000   135.9000   133.6000   135.2000   135.9000   136.7000   133.6000   133.6000   134.4000   133.6000   133.6000   135.2000   138.3000   135.9000   136.7000   137.5000   135.2000   135.9000   133.6000   130.5000   134.4000   133.6000   132.0000   132.0000   131.3000   128.1000   128.9000   132.0000   131.3000   131.3000   128.1000   127.3000   129.7000   129.7000   125.8000   123.4000   123.4000   121.9000   121.9000   124.2000   120.3000   118.8000   116.4000   120.3000   121.9000   118.8000   119.5000   118.8000   117.2000   119.5000   121.9000   121.1000   121.1000   117.2000   118.0000   118.8000   121.9000   118.0000   114.1000   116.4000   120.3000   121.1000   118.0000   118.8000   118.8000   115.6000   114.8000   115.6000   114.1000   115.6000   117.2000   115.6000   113.3000   112.5000   113.3000   114.1000   111.7000   114.8000   115.6000   115.6000   115.6000   116.4000   114.1000   113.3000   113.3000   115.6000   116.4000   117.2000   118.0000   115.6000   118.0000   124.2000   121.1000   118.0000   114.1000   115.6000   118.8000   120.3000   118.8000   118.8000   118.8000   122.7000   121.9000   118.0000   118.8000   118.0000   120.3000   122.7000   122.7000   121.9000   121.1000   119.5000   118.0000   118.8000   117.2000   114.8000   114.8000   115.6000   112.5000   111.7000   112.5000   107.0000   103.1000   104.7000   102.3000   104.7000   103.9000    98.4000   100.8000    98.4000    98.4000    92.2000    93.8000    93.0000    91.4000    87.5000    88.3000    89.1000    91.4000    88.3000    89.8000    84.4000    82.0000    80.5000    80.5000    78.9000    78.9000    75.8000    77.3000    73.4000    74.2000    71.1000    70.3000    70.3000    69.5000    68.0000    68.0000    68.8000    72.7000    70.3000    70.3000    68.8000    67.2000    68.8000    67.2000    64.8000    64.8000    64.1000    64.1000    64.1000    59.4000    58.6000    59.4000    61.7000    57.0000    54.7000    55.5000    55.5000    52.3000    50.8000    50.0000    48.4000    49.2000    47.7000    46.1000    44.5000    43.0000    39.8000    39.8000    41.4000    39.1000    40.6000    41.4000    34.4000    32.0000    33.6000    32.0000    29.7000    30.5000    26.6000    23.4000    21.9000    19.5000    16.4000    17.2000    16.4000    11.7000    13.3000    12.5000     9.4000     7.0000     4.7000     1.6000     0.0000    -3.1000    -3.1000    -3.9000   -13.3000   -14.8000   -14.1000   -15.6000   -19.5000   -23.4000   -28.9000   -32.8000   -34.4000   -37.5000   -35.2000   -38.3000   -41.4000   -42.2000   -48.4000   -50.0000   -54.7000   -57.0000   -58.6000   -61.7000   -64.8000   -64.1000   -67.2000   -72.7000   -72.7000   -73.4000   -77.3000   -79.7000   -83.6000   -85.9000   -87.5000   -88.3000   -89.1000   -86.7000   -89.8000   -90.6000   -97.7000  -101.6000  -100.0000  -104.7000  -103.9000  -103.9000  -105.5000  -108.6000  -107.0000  -110.2000  -114.1000  -114.8000  -118.0000  -120.3000  -118.8000  -121.9000  -121.1000  -123.4000  -124.2000  -124.2000  -124.2000  -125.0000  -131.3000  -129.7000  -133.6000  -137.5000  -139.1000  -134.4000  -132.8000  -132.0000  -132.8000  -135.9000  -139.1000  -144.5000  -147.7000  -143.0000  -145.3000  -147.7000  -148.4000  -152.3000  -155.5000  -154.7000  -154.7000  -157.0000  -160.2000  -157.0000  -156.3000  -157.0000  -162.5000  -162.5000  -160.9000  -163.3000  -164.8000  -168.0000  -168.0000  -169.5000  -170.3000  -175.0000  -174.2000  -173.4000  -178.9000  -180.5000  -182.0000  -182.8000  -182.0000  -185.9000  -190.6000  -193.8000  -196.9000  -193.8000  -196.1000  -200.0000  -202.3000  -202.3000  -203.1000  -198.4000  -196.9000  -197.7000  -201.6000  -203.1000  -203.1000  -205.5000  -206.3000  -204.7000  -205.5000  -205.5000  -206.3000  -204.7000  -205.5000  -203.9000  -203.9000  -202.3000  -201.6000  -200.0000  -200.0000  -196.9000  -196.9000  -198.4000  -194.5000  -190.6000  -186.7000  -190.6000  -188.3000  -187.5000  -185.9000  -187.5000  -185.9000  -186.7000  -184.4000  -185.9000  -181.3000  -180.5000  -178.9000  -176.6000  -172.7000  -172.7000  -169.5000  -168.8000  -168.8000  -169.5000  -170.3000  -173.4000  -173.4000  -171.9000  -168.8000  -168.8000  -165.6000  -166.4000  -168.0000  -164.1000  -164.1000  -159.4000  -157.8000  -160.2000  -162.5000  -164.1000  -161.7000  -161.7000  -161.7000  -160.9000  -159.4000  -160.2000  -156.3000  -155.5000  -155.5000  -155.5000  -156.3000  -158.6000  -157.8000  -156.3000  -158.6000  -160.2000  -160.2000  -160.9000  -161.7000  -163.3000  -164.8000  -162.5000  -163.3000  -159.4000  -160.9000  -163.3000  -164.8000  -164.1000  -164.1000  -168.0000  -169.5000  -168.8000  -171.9000  -171.9000  -168.0000  -168.8000  -172.7000  -176.6000  -175.8000  -177.3000  -176.6000  -172.7000  -175.8000  -180.5000  -182.8000  -182.8000  -185.2000  -189.1000  -187.5000  -185.9000  -188.3000  -187.5000  -190.6000  -190.6000  -190.6000  -189.1000  -191.4000  -192.2000  -191.4000  -193.0000  -193.8000  -193.8000  -195.3000  -195.3000  -196.9000  -196.9000  -200.0000  -199.2000  -199.2000  -197.7000  -198.4000  -202.3000  -200.0000  -197.7000  -197.7000  -200.8000  -203.1000  -205.5000  -208.6000  -208.6000  -207.8000  -204.7000  -205.5000  -207.8000  -206.3000  -207.8000  -210.2000  -210.2000  -209.4000  -210.9000  -213.3000  -214.8000  -219.5000  -222.7000  -220.3000  -217.2000  -220.3000  -221.1000  -220.3000  -224.2000  -226.6000  -227.3000  -226.6000  -225.8000  -224.2000  -225.0000  -228.9000  -228.1000  -227.3000  -225.0000  -226.6000  -228.1000  -224.2000  -220.3000  -220.3000  -218.0000  -217.2000  -216.4000  -215.6000  -216.4000  -216.4000  -212.5000  -210.2000  -207.0000  -203.1000  -201.6000  -201.6000  -198.4000  -193.8000  -188.3000  -188.3000  -183.6000  -179.7000  -180.5000  -178.9000  -170.3000  -168.0000  -167.2000  -164.8000  -164.8000  -160.2000  -155.5000  -152.3000  -150.0000  -150.0000  -148.4000  -145.3000  -140.6000  -140.6000  -136.7000  -133.6000  -132.0000  -128.9000  -124.2000  -124.2000  -121.9000  -115.6000  -113.3000  -114.8000  -115.6000  -113.3000  -110.2000  -105.5000  -103.9000  -101.6000   -97.7000  -100.0000   -94.5000   -88.3000   -85.2000   -80.5000   -80.5000   -79.7000   -77.3000   -77.3000   -78.9000   -75.8000   -71.9000   -67.2000   -67.2000   -66.4000   -62.5000   -59.4000   -57.0000   -49.2000   -48.4000   -46.9000   -46.1000   -40.6000   -41.4000   -38.3000   -37.5000   -32.8000   -33.6000   -33.6000   -30.5000   -25.8000   -22.7000   -20.3000   -19.5000   -19.5000   -18.8000   -18.0000   -18.8000   -17.2000   -14.8000   -15.6000   -11.7000   -12.5000   -14.1000   -11.7000   -10.9000   -13.3000   -14.1000   -17.2000   -19.5000   -23.4000   -22.7000   -21.1000   -23.4000   -25.0000   -32.0000   -32.8000   -36.7000   -40.6000   -42.2000   -47.7000   -53.1000   -60.9000   -66.4000   -70.3000   -78.1000   -83.6000   -89.8000   -96.9000  -106.3000  -116.4000  -124.2000  -132.0000  -146.1000  -155.5000  -160.2000  -169.5000  -177.3000  -185.2000  -195.3000  -203.9000  -208.6000  -221.1000  -228.1000  -237.5000  -248.4000  -253.9000  -257.8000  -267.2000  -275.8000  -279.7000  -282.8000  -285.2000  -289.8000  -294.5000  -296.1000  -295.3000  -295.3000  -300.0000  -297.7000  -296.1000  -293.8000  -291.4000  -293.0000  -293.0000  -290.6000  -286.7000  -287.5000  -282.0000  -278.9000  -274.2000  -267.2000  -264.8000  -258.6000  -250.0000  -246.1000  -246.1000  -236.7000  -231.3000  -232.0000  -224.2000  -214.1000  -207.0000  -200.8000  -193.8000  -187.5000  -177.3000  -167.2000  -160.9000  -150.8000  -144.5000  -138.3000  -132.0000  -125.0000  -121.1000  -112.5000  -100.0000   -93.0000   -85.9000   -80.5000   -71.9000   -63.3000   -53.1000   -46.9000   -43.0000   -35.2000   -25.8000   -21.1000   -12.5000    -6.3000    -3.9000     0.8000     7.0000    15.6000    22.7000    28.1000    34.4000    35.9000    42.2000    51.6000    53.9000    60.2000    60.9000    67.2000    70.3000    70.3000    71.1000    77.3000    82.0000    85.9000    89.1000    93.0000    94.5000    97.7000   101.6000   105.5000   106.3000   103.9000   103.9000   107.0000   108.6000   107.0000   105.5000   105.5000   107.0000   105.5000   106.3000   100.0000   100.0000    98.4000   102.3000   100.8000    98.4000    91.4000    92.2000    94.5000    92.2000    90.6000    89.1000    86.7000    86.7000    80.5000    79.7000    75.8000    69.5000    62.5000    61.7000    60.9000    54.7000    46.9000    42.2000    42.2000    32.0000    25.8000    20.3000    16.4000    10.2000     3.9000    -1.6000    -5.5000   -14.1000   -20.3000   -28.9000   -32.8000   -36.7000   -41.4000   -43.8000   -51.6000   -56.3000   -61.7000   -64.1000   -64.8000   -73.4000   -77.3000   -82.0000   -88.3000   -93.8000   -99.2000  -103.1000  -107.0000  -114.1000  -117.2000  -118.8000  -120.3000  -119.5000  -119.5000  -124.2000  -126.6000  -126.6000  -130.5000  -135.9000  -133.6000  -136.7000  -138.3000  -139.8000  -139.1000  -139.8000  -139.1000  -136.7000  -135.9000  -135.9000  -136.7000  -137.5000  -134.4000  -136.7000  -134.4000  -134.4000  -137.5000  -133.6000  -131.3000  -128.1000  -129.7000  -125.8000  -122.7000  -125.8000  -125.0000  -116.4000  -115.6000  -117.2000  -117.2000  -118.8000  -121.9000  -119.5000  -120.3000  -121.1000  -121.1000  -123.4000  -117.2000  -111.7000  -112.5000  -108.6000  -108.6000  -109.4000  -106.3000  -103.1000   -98.4000   -93.8000   -84.4000   -74.2000   -58.6000   -43.0000   -18.8000     4.7000    27.3000    56.3000    82.0000   109.4000   136.7000   164.1000   188.3000   213.3000   238.3000   259.4000   277.3000   294.5000   314.8000   330.5000   342.2000   353.9000   357.0000   358.6000   351.6000   340.6000   321.9000   299.2000   273.4000   242.2000   210.9000   169.5000   119.5000    65.6000    10.2000   -56.3000  -122.7000  -189.8000  -267.2000  -338.3000  -406.3000  -475.0000  -536.7000  -589.8000  -635.2000  -678.1000  -714.1000  -744.5000  -771.1000  -796.9000  -822.7000  -845.3000  -862.5000  -879.7000  -889.8000  -896.1000  -903.1000  -908.6000  -907.8000  -907.8000  -902.3000  -896.1000  -886.7000  -879.7000  -873.4000  -861.7000  -851.6000  -840.6000  -828.1000  -813.3000  -800.8000  -788.3000  -770.3000  -750.0000  -732.0000  -716.4000  -698.4000  -679.7000  -665.6000  -644.5000  -626.6000  -608.6000  -586.7000  -568.8000  -549.2000  -531.3000  -512.5000  -494.5000  -471.9000  -455.5000  -436.7000  -418.0000  -403.1000  -389.1000  -367.2000  -353.1000  -337.5000  -325.8000  -310.2000  -300.0000  -285.9000  -266.4000  -254.7000  -239.1000  -225.8000  -219.5000  -210.2000  -195.3000  -184.4000  -175.0000  -165.6000  -159.4000  -152.3000  -141.4000  -134.4000  -125.8000  -118.8000  -110.2000  -102.3000   -94.5000   -89.1000   -81.3000   -75.0000   -71.9000   -65.6000   -60.2000   -58.6000   -53.9000   -46.9000   -43.0000   -38.3000   -30.5000   -25.0000   -21.9000   -20.3000   -17.2000   -10.9000    -6.3000    -2.3000     0.0000     3.9000     4.7000     5.5000    10.2000    10.9000    15.6000    14.8000    14.1000    13.3000    16.4000    20.3000    19.5000    19.5000    19.5000    16.4000    18.0000    19.5000    20.3000    19.5000    18.0000    17.2000    18.8000    18.8000    15.6000    15.6000    18.8000    16.4000    17.2000    18.8000    18.0000    17.2000    18.0000    18.0000    20.3000    17.2000    11.7000    14.1000    13.3000    12.5000     9.4000    10.9000    11.7000    13.3000    13.3000    14.8000    14.1000    16.4000    15.6000    17.2000    19.5000    19.5000    21.1000    19.5000    20.3000    22.7000    28.1000    31.3000    30.5000    32.8000    29.7000    28.1000    31.3000    33.6000    32.8000    35.2000    36.7000    42.2000    36.7000    36.7000    39.1000    37.5000    38.3000    42.2000    43.0000    43.8000    41.4000    47.7000    49.2000    52.3000    52.3000    51.6000    53.1000    56.3000    56.3000    59.4000    61.7000    66.4000    64.1000    67.2000    73.4000    71.1000    69.5000    73.4000    78.1000    80.5000    78.1000    78.9000    81.3000    82.0000    79.7000    77.3000    79.7000    78.9000    80.5000    81.3000    80.5000    83.6000    83.6000    80.5000    82.0000    87.5000    89.1000    87.5000    89.8000    93.8000    92.2000    90.6000    88.3000    87.5000    89.1000    92.2000    94.5000    94.5000    92.2000    93.8000    93.8000    96.9000    97.7000    97.7000    96.9000    94.5000    95.3000    94.5000    93.8000    95.3000    94.5000    93.0000    95.3000    96.9000    96.9000    95.3000    95.3000    96.1000    99.2000    98.4000    98.4000    96.1000    93.8000    93.0000    95.3000    96.1000    92.2000    90.6000    92.2000    86.7000    86.7000    86.7000    88.3000    89.1000    90.6000    89.1000    86.7000    89.1000    89.1000    88.3000    83.6000    80.5000    82.0000    85.9000    82.8000    78.9000    78.1000    76.6000    77.3000    76.6000    73.4000    78.1000    79.7000    77.3000    71.9000    69.5000    68.8000    70.3000    72.7000    69.5000    68.8000    70.3000    68.0000    67.2000    64.8000    65.6000    63.3000    60.2000    63.3000    62.5000    58.6000    54.7000    54.7000    53.1000    53.1000    50.0000    45.3000    44.5000    46.9000    46.9000    44.5000    44.5000    41.4000    38.3000    35.9000    34.4000    27.3000    32.0000    30.5000    27.3000    28.1000    26.6000    20.3000    18.8000    18.0000    18.0000    16.4000    13.3000    12.5000    10.9000     9.4000     9.4000     7.0000     7.0000     1.6000     0.8000     6.3000     3.9000     1.6000     1.6000     2.3000     1.6000    -0.8000    -4.7000    -2.3000     0.0000     0.0000     0.8000     3.9000     4.7000     1.6000     3.9000     4.7000     3.1000     4.7000     5.5000     6.3000     7.0000     9.4000    10.2000    10.2000    12.5000    10.2000    14.8000    17.2000    18.0000    18.0000    21.9000    23.4000    24.2000    29.7000    30.5000    29.7000    32.8000    32.8000    35.2000    39.1000    39.8000    43.0000    45.3000    45.3000    45.3000    46.9000    46.1000    46.1000    46.1000    49.2000    50.8000    52.3000    50.8000    48.4000    51.6000    53.9000    56.3000    54.7000    55.5000    60.2000    56.3000    56.3000    57.0000    61.7000    63.3000    60.9000    61.7000    66.4000    59.4000    58.6000    60.9000    60.2000    59.4000    61.7000    63.3000    60.2000    58.6000    57.0000    57.8000    57.8000    57.0000    55.5000    57.8000    60.2000    60.2000    57.0000    57.0000    60.2000    60.9000    60.9000    57.0000    57.0000    57.8000    56.3000    55.5000    57.0000    57.0000    54.7000    53.9000    56.3000    57.0000    56.3000    55.5000    55.5000    56.3000    57.0000    53.1000    51.6000    53.1000    48.4000    50.0000    52.3000    52.3000    46.9000    46.1000    47.7000    50.0000    46.9000    43.8000    43.8000    46.1000    46.1000    44.5000    43.8000    42.2000    38.3000    38.3000    41.4000    43.0000    41.4000    36.7000    36.7000    39.8000    43.8000    40.6000    35.9000    37.5000    38.3000    37.5000    36.7000    34.4000    33.6000    30.5000    30.5000    32.0000    32.8000    32.0000    29.7000    30.5000    26.6000    27.3000    26.6000    25.0000    26.6000    26.6000    26.6000    28.9000    27.3000    26.6000    21.9000    25.8000    26.6000    22.7000    21.9000    20.3000    18.0000    19.5000    18.8000    15.6000    10.2000    10.9000    11.7000    14.1000    13.3000     9.4000    10.9000    10.9000    10.9000    11.7000    15.6000    10.9000    11.7000     9.4000     7.0000     5.5000     3.1000    -0.8000     3.1000     3.1000     2.3000     0.0000    -3.1000    -7.0000    -7.0000    -6.3000    -6.3000    -7.0000    -8.6000    -7.0000    -8.6000    -9.4000   -10.9000   -10.2000   -10.2000   -13.3000   -16.4000   -17.2000   -18.8000   -18.0000   -21.1000   -21.9000   -24.2000   -22.7000   -18.8000   -18.8000   -20.3000   -19.5000   -22.7000   -25.8000   -25.8000   -27.3000   -32.8000   -29.7000   -28.9000   -30.5000   -32.0000   -33.6000   -35.2000   -30.5000   -31.3000   -35.2000   -33.6000   -39.1000   -39.8000   -39.8000   -44.5000   -39.1000   -37.5000   -40.6000   -40.6000   -39.8000   -41.4000   -42.2000   -43.0000   -43.0000   -43.8000   -45.3000   -46.9000   -49.2000   -47.7000   -46.9000   -44.5000   -45.3000   -45.3000   -50.0000   -50.0000   -50.8000   -55.5000   -57.0000   -56.3000   -57.0000   -57.0000   -53.9000   -53.1000   -57.0000   -58.6000   -64.8000   -62.5000   -64.1000   -65.6000   -67.2000   -62.5000   -63.3000   -63.3000   -62.5000   -63.3000   -64.1000   -64.8000   -66.4000   -67.2000   -69.5000   -71.9000   -72.7000   -71.1000   -73.4000   -74.2000   -74.2000   -77.3000   -78.9000   -79.7000   -82.8000   -85.9000   -89.1000   -89.8000   -89.8000   -92.2000   -93.8000   -96.9000   -95.3000  -100.0000  -102.3000  -103.1000  -107.8000  -108.6000  -107.8000  -108.6000  -110.2000  -110.2000  -111.7000  -111.7000  -115.6000  -115.6000  -116.4000  -121.9000  -125.0000  -125.0000  -123.4000  -128.1000  -131.3000  -132.0000  -134.4000  -136.7000  -137.5000  -140.6000  -140.6000  -143.0000  -144.5000  -142.2000  -140.6000  -142.2000  -144.5000  -144.5000  -143.0000  -145.3000  -145.3000  -140.6000  -139.8000  -141.4000  -141.4000  -143.8000  -140.6000  -138.3000  -136.7000  -136.7000  -135.2000  -134.4000  -134.4000  -134.4000  -133.6000  -132.8000  -129.7000  -129.7000  -128.1000  -125.0000  -125.8000  -121.9000  -120.3000  -120.3000  -121.9000  -121.1000  -116.4000  -117.2000  -114.8000  -110.9000  -114.8000  -110.2000  -109.4000  -107.8000  -103.1000  -102.3000  -100.8000  -100.8000  -100.8000   -98.4000   -93.8000   -91.4000   -91.4000   -89.1000   -88.3000   -87.5000   -85.9000   -82.8000   -81.3000   -79.7000   -77.3000   -75.8000   -78.9000   -73.4000   -68.8000   -66.4000   -63.3000   -60.2000   -62.5000   -59.4000   -56.3000   -55.5000   -56.3000   -60.9000   -54.7000   -49.2000   -48.4000   -50.8000   -48.4000   -48.4000   -47.7000   -46.9000   -46.1000   -46.1000   -45.3000   -43.8000   -46.1000   -46.1000   -45.3000   -50.0000   -46.9000   -46.1000   -49.2000   -46.9000   -43.8000   -46.9000   -48.4000   -48.4000   -48.4000   -50.8000   -53.1000   -55.5000   -58.6000   -59.4000   -60.2000   -62.5000   -64.8000   -65.6000   -66.4000   -72.7000   -75.0000   -79.7000   -83.6000   -88.3000   -85.2000   -89.1000   -92.2000   -96.9000  -101.6000  -104.7000  -107.8000  -113.3000  -116.4000  -121.1000  -127.3000  -130.5000  -138.3000  -142.2000  -146.1000  -150.8000  -156.3000  -160.9000  -168.8000  -175.8000  -181.3000  -185.2000  -191.4000  -199.2000  -205.5000  -214.1000  -221.9000  -227.3000  -234.4000  -239.1000  -246.1000  -252.3000  -257.8000  -264.1000  -269.5000  -275.8000  -284.4000  -290.6000  -293.0000  -296.1000  -305.5000  -316.4000  -319.5000  -321.9000  -328.9000  -335.9000  -341.4000  -344.5000  -351.6000  -355.5000  -357.8000  -360.9000  -366.4000  -370.3000  -375.0000  -371.1000  -376.6000  -381.3000  -385.9000  -386.7000  -387.5000  -387.5000  -391.4000  -393.0000  -393.8000  -392.2000  -390.6000  -393.8000  -394.5000  -396.1000  -393.8000  -394.5000  -391.4000  -393.0000  -396.1000  -393.0000  -391.4000  -393.0000  -393.0000  -392.2000  -389.8000  -388.3000  -387.5000  -384.4000  -382.8000  -382.8000  -382.0000  -379.7000  -377.3000  -374.2000  -370.3000  -367.2000  -367.2000  -364.8000  -364.1000  -360.2000  -354.7000  -351.6000  -350.8000  -347.7000  -345.3000  -343.8000  -340.6000  -336.7000  -334.4000  -331.3000  -325.8000  -323.4000  -318.0000  -309.4000  -307.8000  -305.5000  -299.2000  -296.1000  -293.8000  -289.1000  -282.8000  -282.8000  -282.0000  -279.7000  -270.3000  -268.0000  -261.7000  -257.0000  -253.1000  -247.7000  -243.0000  -240.6000  -236.7000  -232.0000  -227.3000  -220.3000  -218.8000  -216.4000  -212.5000  -207.0000  -203.9000  -200.0000  -191.4000  -185.9000  -183.6000  -180.5000  -174.2000  -168.0000  -166.4000  -161.7000  -157.0000  -155.5000  -146.9000  -146.1000  -148.4000  -143.0000  -137.5000  -135.9000  -132.0000  -126.6000  -122.7000  -118.8000  -115.6000  -112.5000  -105.5000  -103.1000  -101.6000  -100.8000   -96.9000   -94.5000   -90.6000   -89.8000   -88.3000   -87.5000   -83.6000   -83.6000   -81.3000   -78.1000   -72.7000   -71.9000   -67.2000   -64.1000   -67.2000   -65.6000   -63.3000   -62.5000   -58.6000   -56.3000   -54.7000   -52.3000   -50.0000   -47.7000   -45.3000   -47.7000   -43.8000   -42.2000   -43.8000   -43.8000   -42.2000   -36.7000   -36.7000   -36.7000   -33.6000   -34.4000   -34.4000   -32.0000   -32.0000   -30.5000   -29.7000   -28.9000   -28.1000   -24.2000   -18.8000   -14.8000   -12.5000   -11.7000   -13.3000    -7.8000    -7.8000    -5.5000    -0.8000     4.7000     4.7000     5.5000    10.9000    18.0000    24.2000    24.2000    27.3000    29.7000    30.5000    34.4000    42.2000    46.1000    48.4000    50.8000    54.7000    54.7000    58.6000    60.9000    67.2000    71.1000    72.7000    79.7000    85.9000    86.7000    85.9000    86.7000    90.6000    87.5000    93.0000    98.4000   100.0000   102.3000   104.7000   102.3000   103.1000   106.3000   109.4000   112.5000   118.0000   119.5000   127.3000   135.9000   140.6000   145.3000   150.8000   158.6000   165.6000   176.6000   184.4000   188.3000   192.2000   203.1000   211.7000   216.4000   224.2000   225.0000   225.8000   228.1000   235.9000   241.4000   243.0000   243.8000   243.8000   243.8000   242.2000   241.4000   243.8000   243.0000   239.1000   238.3000   234.4000   225.8000   221.1000   214.8000   207.8000   202.3000   195.3000   187.5000   179.7000   168.8000   156.3000   149.2000   141.4000   132.0000   125.8000   116.4000   107.8000   101.6000    90.6000    84.4000    75.8000    65.6000    56.3000    46.1000    40.6000    31.3000    21.1000    14.1000     4.7000    -2.3000    -6.3000   -14.8000   -23.4000   -30.5000   -38.3000   -39.8000   -43.8000   -50.0000   -60.2000   -67.2000   -69.5000   -77.3000   -84.4000   -88.3000   -96.1000  -103.1000  -110.9000  -118.8000  -125.8000  -133.6000  -139.8000  -150.8000  -155.5000  -160.9000  -168.8000  -175.8000  -185.2000  -194.5000  -207.0000  -211.7000  -218.0000  -225.8000  -232.8000  -244.5000  -249.2000  -257.0000  -268.8000  -271.1000  -272.7000  -275.8000  -282.0000  -286.7000  -288.3000  -289.8000  -289.8000  -293.0000  -296.1000  -298.4000  -300.0000  -296.1000  -296.1000  -294.5000  -293.0000  -288.3000  -288.3000  -285.2000  -278.9000  -277.3000  -273.4000  -267.2000  -268.8000  -264.1000  -257.8000  -255.5000  -250.8000  -244.5000  -240.6000  -234.4000  -228.9000  -221.1000  -216.4000  -211.7000  -207.0000  -199.2000  -191.4000  -185.9000  -178.9000  -168.8000  -161.7000  -155.5000  -149.2000  -142.2000  -139.1000  -131.3000  -125.8000  -118.8000  -113.3000  -103.1000   -97.7000   -92.2000   -86.7000   -80.5000   -75.0000   -69.5000   -66.4000   -60.2000   -55.5000   -48.4000   -46.1000   -39.1000   -39.1000   -33.6000   -28.9000   -23.4000   -16.4000   -11.7000    -8.6000    -5.5000    -2.3000    -0.8000     3.1000     9.4000    10.2000    14.1000    17.2000    19.5000    21.9000    25.8000    25.8000    27.3000    31.3000    33.6000    35.9000    40.6000    43.0000    43.8000    43.8000    43.0000    43.0000    44.5000    45.3000    44.5000    41.4000    39.8000    45.3000    45.3000    42.2000    40.6000    42.2000    42.2000    43.0000    45.3000    50.8000    54.7000    56.3000    64.1000    71.1000    78.9000    89.8000   106.3000   125.0000   143.0000   160.2000   175.8000   197.7000   216.4000   232.0000   250.8000   269.5000   282.0000   296.9000   311.7000   327.3000   339.1000   348.4000   356.3000   361.7000   364.1000   360.2000   356.3000   349.2000   332.0000   312.5000   288.3000   260.9000   228.1000   187.5000   148.4000    99.2000    45.3000   -14.1000   -74.2000  -136.7000  -203.9000  -271.1000  -331.3000  -389.8000  -440.6000  -487.5000  -527.3000  -557.0000  -585.9000  -609.4000  -629.7000  -650.0000  -669.5000  -681.3000  -693.0000  -703.1000  -709.4000  -712.5000  -716.4000  -719.5000  -715.6000  -708.6000  -699.2000  -689.1000  -680.5000  -670.3000  -660.9000  -646.9000  -631.3000  -618.0000  -607.0000  -592.2000  -577.3000  -564.1000  -545.3000  -527.3000  -512.5000  -496.1000  -477.3000  -460.2000  -443.0000  -423.4000  -402.3000  -385.2000  -371.1000  -351.6000  -332.8000  -318.0000  -300.0000  -282.8000  -265.6000  -247.7000  -229.7000  -214.1000  -200.0000  -184.4000  -168.8000  -157.0000  -146.9000  -132.0000  -118.0000  -110.2000  -100.0000   -88.3000   -79.7000   -72.7000   -64.8000   -53.1000   -43.0000   -35.9000   -27.3000   -23.4000   -15.6000   -10.2000    -0.8000     3.9000     7.8000    13.3000    17.2000    16.4000    21.1000    25.0000    27.3000    28.1000    28.9000    33.6000    34.4000    35.2000    41.4000    35.2000    39.1000    42.2000    43.8000    41.4000    39.8000    41.4000    40.6000    39.1000    41.4000    38.3000    40.6000    41.4000    36.7000    34.4000    34.4000    37.5000    36.7000    40.6000    40.6000    32.8000    32.0000    36.7000    35.9000    31.3000    31.3000    28.9000    32.0000    32.0000    25.0000    25.0000    24.2000    20.3000    21.9000    21.9000    20.3000    19.5000    20.3000    22.7000    19.5000    18.8000    16.4000    14.1000    18.0000    14.8000    16.4000    18.8000    18.0000    20.3000    19.5000    18.8000    21.1000    24.2000    23.4000    24.2000    23.4000    28.1000    26.6000    24.2000    23.4000    25.8000    24.2000    26.6000    25.8000    27.3000    26.6000    28.1000    25.8000    26.6000    22.7000    18.8000    23.4000    25.8000    25.8000    26.6000    25.8000    25.0000    25.0000    23.4000    25.8000    28.9000    28.9000    28.9000    32.0000    33.6000    30.5000    32.8000    35.9000    35.9000    35.9000    32.0000    31.3000    36.7000    40.6000    36.7000    36.7000    36.7000    37.5000    38.3000    36.7000    37.5000    37.5000    39.8000    42.2000    41.4000    39.8000    43.0000    39.8000    39.8000    38.3000    43.8000    42.2000    38.3000    34.4000    32.0000    33.6000    38.3000    35.2000    30.5000    29.7000    28.1000    28.9000    24.2000    20.3000    19.5000    17.2000    11.7000    13.3000    11.7000     8.6000     4.7000     3.1000     3.1000     2.3000    -3.1000   -10.2000   -10.2000   -10.9000   -14.8000   -16.4000   -17.2000   -21.9000   -25.8000   -25.8000   -28.1000   -29.7000   -35.2000   -37.5000   -40.6000   -46.9000   -49.2000   -46.9000   -46.9000   -49.2000   -56.3000   -60.2000   -58.6000   -58.6000   -58.6000   -60.2000   -64.1000   -62.5000   -64.1000   -67.2000   -68.0000   -69.5000   -75.0000   -77.3000   -77.3000   -78.1000   -82.0000   -78.9000   -77.3000   -78.1000   -80.5000   -80.5000   -81.3000   -80.5000   -82.0000   -83.6000   -84.4000   -89.1000   -89.1000   -85.9000   -85.9000   -85.9000   -85.2000   -89.1000   -87.5000   -85.9000   -90.6000   -90.6000   -89.1000   -89.8000   -92.2000   -87.5000   -85.9000   -87.5000   -86.7000   -86.7000   -85.9000   -89.1000   -88.3000   -86.7000   -89.1000   -87.5000   -86.7000   -87.5000   -89.8000   -88.3000   -87.5000   -83.6000   -85.9000   -85.9000   -88.3000   -86.7000   -88.3000   -93.0000   -93.8000   -88.3000   -88.3000   -87.5000   -87.5000   -88.3000   -92.2000   -90.6000   -90.6000   -96.1000   -97.7000   -97.7000   -96.1000   -96.1000   -96.9000  -103.1000  -103.9000  -103.9000  -103.1000  -103.1000  -102.3000  -103.1000  -104.7000  -105.5000  -103.9000  -103.9000   -99.2000   -96.1000   -95.3000   -99.2000  -100.8000   -98.4000   -94.5000   -93.0000   -90.6000   -85.9000   -88.3000   -82.8000   -75.8000   -75.8000   -75.0000   -73.4000   -71.1000   -65.6000   -65.6000   -65.6000   -65.6000   -60.2000   -57.0000   -52.3000   -49.2000   -51.6000   -47.7000   -43.0000   -38.3000   -37.5000   -32.8000   -32.8000   -26.6000   -28.1000   -26.6000   -23.4000   -19.5000   -17.2000   -18.8000   -14.8000   -11.7000    -6.3000    -3.9000    -3.1000    -1.6000     1.6000     6.3000     7.0000     9.4000    12.5000    15.6000    16.4000    18.0000    19.5000    21.9000    25.8000    24.2000    29.7000    34.4000    35.9000    40.6000    44.5000    46.9000    48.4000    53.9000    54.7000    57.0000    57.0000    59.4000    63.3000    69.5000    68.8000    70.3000    76.6000    77.3000    77.3000    83.6000    85.2000    89.1000    90.6000    91.4000    95.3000    98.4000   101.6000   102.3000   103.1000   107.0000   109.4000   109.4000   114.1000   113.3000   116.4000   118.8000   121.9000   125.8000   123.4000   121.9000   125.0000   124.2000   124.2000   126.6000   124.2000   120.3000   115.6000   119.5000   121.1000   118.0000   118.8000   112.5000   114.1000   114.1000   111.7000   108.6000   109.4000   109.4000   106.3000   104.7000   106.3000   103.9000    96.9000    95.3000    92.2000    90.6000    82.8000    78.1000    75.0000    74.2000    68.0000    64.8000    61.7000    53.9000    48.4000    41.4000    35.2000    30.5000    21.9000    13.3000    10.9000     4.7000    -1.6000    -8.6000   -13.3000   -18.8000   -24.2000   -32.0000   -36.7000   -41.4000   -47.7000   -55.5000   -59.4000   -69.5000   -75.8000   -82.0000   -86.7000   -93.8000   -99.2000  -104.7000  -110.2000  -118.8000  -125.0000  -126.6000  -128.9000  -130.5000  -135.9000  -140.6000  -147.7000  -150.8000  -153.1000  -155.5000  -160.2000  -162.5000  -168.0000  -171.9000  -173.4000  -173.4000  -177.3000  -179.7000  -180.5000  -179.7000  -178.1000  -178.9000  -181.3000  -177.3000  -182.8000  -186.7000  -185.2000  -185.9000  -185.9000  -183.6000  -183.6000  -184.4000  -183.6000  -182.8000  -181.3000  -180.5000  -177.3000  -180.5000  -181.3000  -180.5000  -182.0000  -182.0000  -179.7000  -179.7000  -178.1000  -176.6000  -173.4000  -171.9000  -171.9000  -170.3000  -164.8000  -162.5000  -161.7000  -159.4000  -157.8000  -156.3000  -155.5000  -152.3000  -153.9000  -151.6000  -146.9000  -143.0000  -142.2000  -140.6000  -137.5000  -134.4000  -133.6000  -130.5000  -131.3000  -130.5000  -127.3000  -127.3000  -125.8000  -125.8000  -121.1000  -118.8000  -116.4000  -109.4000  -106.3000  -106.3000  -103.9000  -105.5000  -103.9000  -100.8000   -99.2000  -100.0000   -98.4000   -93.8000   -93.8000   -92.2000   -90.6000   -88.3000   -85.9000   -86.7000   -82.8000   -79.7000   -73.4000   -75.0000   -75.8000   -73.4000   -75.0000   -74.2000   -71.1000   -68.8000   -67.2000   -64.8000   -64.1000   -64.8000   -62.5000   -62.5000   -60.9000   -55.5000   -57.0000   -56.3000   -53.9000   -54.7000   -51.6000   -49.2000   -47.7000   -49.2000   -47.7000   -45.3000   -44.5000   -43.8000   -40.6000   -43.8000   -43.0000   -43.8000   -45.3000   -46.1000   -43.0000   -45.3000   -43.0000   -44.5000   -46.9000   -46.1000   -47.7000   -49.2000   -52.3000   -50.8000   -52.3000   -54.7000   -58.6000   -57.8000   -57.0000   -57.0000   -60.2000   -60.2000   -59.4000   -58.6000   -60.2000   -60.2000   -63.3000   -65.6000   -62.5000   -63.3000   -60.9000   -62.5000   -60.9000   -64.8000   -61.7000   -59.4000   -61.7000   -64.8000   -61.7000   -62.5000   -60.2000   -57.0000   -56.3000   -53.1000   -51.6000   -47.7000   -47.7000   -46.1000   -43.0000   -42.2000   -39.8000   -37.5000   -35.9000   -40.6000   -39.1000   -36.7000   -35.9000   -32.8000   -32.8000   -28.9000   -30.5000   -29.7000   -23.4000   -25.8000   -28.9000   -24.2000   -25.8000   -24.2000   -19.5000   -22.7000   -17.2000   -14.1000   -16.4000   -15.6000   -17.2000   -16.4000   -13.3000   -12.5000   -10.9000   -15.6000   -12.5000   -10.9000   -10.2000    -7.8000    -8.6000    -5.5000    -5.5000    -7.0000   -10.9000   -10.9000   -11.7000    -7.8000    -7.0000    -6.3000    -6.3000    -8.6000   -11.7000   -10.9000    -9.4000    -8.6000   -13.3000   -10.9000 