   -82.0000   -80.5000   -80.5000   -79.7000   -79.7000   -80.5000   -83.6000   -84.4000   -83.6000   -83.6000   -82.8000   -82.8000   -83.6000   -81.3000   -81.3000   -83.6000   -84.4000   -85.2000   -86.7000   -85.9000   -84.4000   -84.4000   -84.4000   -83.6000   -82.8000   -85.9000   -85.9000   -88.3000   -88.3000   -86.7000   -85.9000   -85.9000   -85.9000   -82.8000   -84.4000   -87.5000   -86.7000   -85.9000   -87.5000   -87.5000   -86.7000   -83.6000   -87.5000   -83.6000   -82.8000   -84.4000   -82.8000   -85.9000   -85.2000   -85.2000   -86.7000   -87.5000   -84.4000   -84.4000   -86.7000   -87.5000   -85.2000   -82.8000   -84.4000   -83.6000   -83.6000   -83.6000   -82.8000   -83.6000   -83.6000   -83.6000   -82.8000   -82.8000   -81.3000   -82.8000   -82.8000   -81.3000   -79.7000   -79.7000   -79.7000   -82.8000   -85.2000   -84.4000   -82.8000   -82.0000   -80.5000   -81.3000   -82.8000   -82.8000   -80.5000   -81.3000   -80.5000   -80.5000   -80.5000   -82.8000   -80.5000   -79.7000   -78.9000   -80.5000   -79.7000   -78.1000   -81.3000   -84.4000   -83.6000   -82.0000   -81.3000   -81.3000   -79.7000   -79.7000   -81.3000   -80.5000   -78.9000   -80.5000   -80.5000   -82.0000   -80.5000   -80.5000   -80.5000   -80.5000   -81.3000   -82.8000   -82.8000   -81.3000   -78.9000   -79.7000   -79.7000   -80.5000   -80.5000   -78.9000   -77.3000   -76.6000   -77.3000   -81.3000   -79.7000   -79.7000   -79.7000   -78.9000   -81.3000   -80.5000   -81.3000   -84.4000   -81.3000   -81.3000   -80.5000   -80.5000   -78.9000   -80.5000   -82.0000   -79.7000   -81.3000   -79.7000   -79.7000   -79.7000   -79.7000   -81.3000   -81.3000   -80.5000   -79.7000   -78.9000   -80.5000   -78.9000   -78.9000   -80.5000   -80.5000   -79.7000   -80.5000   -81.3000   -78.9000   -78.1000   -78.9000   -80.5000   -81.3000   -82.0000   -78.9000   -79.7000   -80.5000   -79.7000   -78.9000   -78.9000   -80.5000   -81.3000   -80.5000   -82.0000   -82.0000   -80.5000   -79.7000   -82.0000   -78.1000   -78.1000   -81.3000   -79.7000   -78.9000   -79.7000   -82.0000   -80.5000   -80.5000   -81.3000   -78.9000   -80.5000   -81.3000   -79.7000   -80.5000   -78.9000   -79.7000   -80.5000   -80.5000   -79.7000   -78.9000   -78.9000   -78.9000   -78.9000   -77.3000   -77.3000   -78.1000   -78.9000   -79.7000   -78.1000   -78.1000   -77.3000   -80.5000   -80.5000   -78.9000   -72.7000   -76.6000   -78.1000   -78.1000   -77.3000   -78.1000   -75.8000   -78.9000   -78.1000   -76.6000   -76.6000   -76.6000   -75.8000   -75.8000   -78.1000   -77.3000   -75.8000   -76.6000   -77.3000   -79.7000   -80.5000   -77.3000   -76.6000   -76.6000   -77.3000   -75.8000   -78.1000   -77.3000   -78.1000   -77.3000   -77.3000   -76.6000   -75.0000   -75.8000   -78.9000   -79.7000   -77.3000   -75.0000   -75.8000   -75.8000   -75.8000   -75.8000   -75.0000   -77.3000   -78.9000   -77.3000   -75.0000   -78.1000   -77.3000   -77.3000   -75.8000   -74.2000   -75.8000   -74.2000   -74.2000   -74.2000   -73.4000   -74.2000   -75.0000   -73.4000   -74.2000   -75.0000   -73.4000   -75.0000   -73.4000   -70.3000   -73.4000   -74.2000   -72.7000   -71.1000   -70.3000   -72.7000   -75.0000   -76.6000   -77.3000   -77.3000   -77.3000   -77.3000   -78.1000   -79.7000   -77.3000   -76.6000   -73.4000   -74.2000   -71.9000   -74.2000   -71.1000   -70.3000   -70.3000   -69.5000   -70.3000   -71.1000   -69.5000   -69.5000   -68.0000   -68.8000   -68.8000   -67.2000   -64.1000   -67.2000   -66.4000   -65.6000   -68.0000   -69.5000   -68.8000   -68.0000   -70.3000   -68.0000   -68.0000   -68.8000   -68.8000   -70.3000   -75.8000   -72.7000   -71.1000   -69.5000   -70.3000   -72.7000   -71.9000   -73.4000   -73.4000   -73.4000   -73.4000   -73.4000   -75.0000   -74.2000   -74.2000   -72.7000   -73.4000   -76.6000   -78.1000   -74.2000   -76.6000   -77.3000   -73.4000   -75.8000   -76.6000   -75.8000   -77.3000   -80.5000   -78.1000   -78.1000   -79.7000   -79.7000   -78.1000   -78.9000   -78.9000   -76.6000   -76.6000   -78.9000   -78.9000   -76.6000   -75.8000   -78.1000   -78.1000   -78.1000   -75.8000   -75.0000   -75.0000   -74.2000   -78.1000   -78.1000   -75.0000   -74.2000   -76.6000   -75.8000   -75.8000   -74.2000   -71.9000   -76.6000   -77.3000   -75.0000   -75.8000   -75.0000   -74.2000   -76.6000   -75.8000   -76.6000   -76.6000   -77.3000   -74.2000   -73.4000   -73.4000   -72.7000   -72.7000   -73.4000   -74.2000   -75.8000   -76.6000   -75.0000   -74.2000   -73.4000   -74.2000   -75.0000   -75.8000   -71.9000   -73.4000   -75.8000   -72.7000   -73.4000   -75.0000   -73.4000   -74.2000   -77.3000   -79.7000   -77.3000   -75.0000   -75.0000   -75.0000   -76.6000   -75.8000   -76.6000   -76.6000   -74.2000   -74.2000   -75.8000   -75.0000   -75.8000   -75.0000   -75.8000   -74.2000   -77.3000   -76.6000   -75.0000   -74.2000   -75.0000   -75.8000   -72.7000   -72.7000   -73.4000   -75.0000   -75.0000   -74.2000   -75.8000   -74.2000   -75.0000   -75.0000   -73.4000   -73.4000   -72.7000   -71.9000   -75.8000   -75.8000   -76.6000   -76.6000   -76.6000   -75.8000   -75.8000   -77.3000   -78.1000   -76.6000   -75.8000   -75.0000   -75.0000   -77.3000   -75.8000   -75.8000   -74.2000   -71.1000   -70.3000   -75.0000   -77.3000   -78.1000   -74.2000   -72.7000   -75.0000   -73.4000   -69.5000   -70.3000   -73.4000   -72.7000   -75.0000   -77.3000   -77.3000   -76.6000   -75.0000   -74.2000   -72.7000   -72.7000   -73.4000   -76.6000   -77.3000   -75.8000   -74.2000   -72.7000   -76.6000   -73.4000   -72.7000   -72.7000   -74.2000   -72.7000   -71.9000   -70.3000   -68.8000   -69.5000   -70.3000   -70.3000   -70.3000   -68.8000   -68.0000   -68.8000   -69.5000   -68.0000   -68.8000   -68.8000   -66.4000   -70.3000   -68.8000   -68.0000   -69.5000   -70.3000   -71.9000   -68.8000   -70.3000   -70.3000   -69.5000   -68.0000   -67.2000   -68.8000   -66.4000   -67.2000   -67.2000   -67.2000   -67.2000   -65.6000   -65.6000   -66.4000   -68.0000   -66.4000   -61.7000   -62.5000   -64.1000   -64.8000   -63.3000   -64.8000   -64.1000   -64.8000   -64.1000   -63.3000   -62.5000   -61.7000   -62.5000   -64.8000   -63.3000   -63.3000   -64.8000   -63.3000   -60.2000   -61.7000   -64.8000   -65.6000   -64.1000   -61.7000   -61.7000   -64.1000   -64.8000   -64.8000   -64.1000   -63.3000   -64.8000   -64.8000   -64.8000   -65.6000   -64.8000   -65.6000   -64.8000   -66.4000   -67.2000   -71.1000   -68.8000   -68.0000   -67.2000   -67.2000   -68.0000   -68.0000   -69.5000   -68.8000   -68.8000   -68.8000   -71.9000   -74.2000   -75.8000   -76.6000   -77.3000   -75.8000   -78.1000   -79.7000   -78.9000   -78.1000   -78.9000   -78.9000   -81.3000   -81.3000   -80.5000   -82.8000   -82.0000   -81.3000   -82.0000   -83.6000   -85.2000   -85.9000   -85.9000   -85.9000   -85.2000   -84.4000   -85.2000   -86.7000   -86.7000   -86.7000   -86.7000   -86.7000   -83.6000   -82.8000   -84.4000   -84.4000   -84.4000   -82.8000   -82.0000   -82.8000   -78.9000   -81.3000   -79.7000   -80.5000   -81.3000   -80.5000   -81.3000   -81.3000   -81.3000   -80.5000   -80.5000   -78.1000   -78.9000   -76.6000   -78.1000   -75.8000   -75.8000   -77.3000   -76.6000   -74.2000   -75.8000   -76.6000   -77.3000   -75.0000   -75.8000   -75.0000   -75.8000   -78.1000   -78.9000   -74.2000   -73.4000   -75.8000   -76.6000   -73.4000   -73.4000   -75.0000   -76.6000   -75.8000   -75.0000   -73.4000   -74.2000   -75.8000   -76.6000   -76.6000   -77.3000   -77.3000   -75.8000   -75.0000   -75.8000   -74.2000   -71.9000   -71.9000   -72.7000   -71.9000   -76.6000   -78.1000   -75.8000   -75.0000   -74.2000   -72.7000   -71.1000   -69.5000   -70.3000   -71.1000   -73.4000   -70.3000   -71.9000   -71.9000   -70.3000   -73.4000   -73.4000   -72.7000   -74.2000   -70.3000   -69.5000   -69.5000   -68.8000   -67.2000   -69.5000   -69.5000   -69.5000   -69.5000   -70.3000   -70.3000   -69.5000   -70.3000   -70.3000   -70.3000   -68.8000   -68.8000   -70.3000   -70.3000   -68.8000   -68.8000   -71.1000   -71.9000   -69.5000   -71.1000   -71.1000   -69.5000   -71.1000   -75.0000   -77.3000   -75.0000   -73.4000   -73.4000   -77.3000   -77.3000   -78.9000   -78.9000   -78.1000   -78.1000   -78.1000   -76.6000   -78.1000   -77.3000   -76.6000   -74.2000   -76.6000   -75.8000   -75.8000   -76.6000   -76.6000   -77.3000   -77.3000   -77.3000   -77.3000   -76.6000   -75.8000   -74.2000   -77.3000   -78.9000   -77.3000   -75.0000   -76.6000   -77.3000   -78.1000   -76.6000   -75.8000   -78.1000   -75.8000   -75.0000   -76.6000   -75.8000   -77.3000   -76.6000   -75.8000   -76.6000   -76.6000   -75.8000   -78.9000   -78.1000   -76.6000   -78.1000   -78.1000   -76.6000   -75.0000   -76.6000   -77.3000   -78.9000   -79.7000   -78.9000   -78.1000   -78.9000   -76.6000   -78.1000   -77.3000   -78.1000   -78.9000   -79.7000   -78.1000   -78.9000   -79.7000   -78.9000   -78.1000   -78.9000   -78.1000   -78.9000   -78.1000   -76.6000   -77.3000   -78.9000   -79.7000   -77.3000   -75.0000   -76.6000   -76.6000   -76.6000   -78.1000   -76.6000   -76.6000   -75.0000   -76.6000   -74.2000   -75.0000   -74.2000   -75.0000   -75.8000   -75.0000   -75.0000   -74.2000   -74.2000   -75.8000   -76.6000   -76.6000   -75.8000   -74.2000   -76.6000   -79.7000   -78.1000   -76.6000   -78.1000   -79.7000   -80.5000   -79.7000   -80.5000   -80.5000   -80.5000   -80.5000   -80.5000   -79.7000   -79.7000   -78.9000   -79.7000   -79.7000   -79.7000   -79.7000   -80.5000   -79.7000   -78.9000   -78.9000   -81.3000   -81.3000   -79.7000   -79.7000   -80.5000   -78.1000   -79.7000   -78.1000   -75.8000   -77.3000   -77.3000   -74.2000   -75.0000   -75.8000   -75.0000   -77.3000   -76.6000   -75.0000   -76.6000   -77.3000   -75.0000   -74.2000   -71.1000   -75.0000   -74.2000   -75.0000   -74.2000   -71.1000   -70.3000   -70.3000   -74.2000   -72.7000   -72.7000   -72.7000   -72.7000   -73.4000   -73.4000   -71.9000   -74.2000   -73.4000   -74.2000   -73.4000   -75.8000   -76.6000   -78.9000   -77.3000   -74.2000   -75.8000   -76.6000   -77.3000   -75.8000   -76.6000   -78.1000   -78.1000   -78.1000   -79.7000   -75.8000   -74.2000   -77.3000   -76.6000   -75.8000   -76.6000   -77.3000   -75.8000   -76.6000   -74.2000   -75.0000   -74.2000   -75.8000   -74.2000   -73.4000   -71.9000   -73.4000   -71.9000   -71.9000   -72.7000   -72.7000   -73.4000   -72.7000   -75.0000   -71.9000   -73.4000   -71.9000   -70.3000   -72.7000   -70.3000   -70.3000   -68.8000   -68.8000   -69.5000   -69.5000   -72.7000   -72.7000   -69.5000   -68.8000   -67.2000   -70.3000   -70.3000   -68.8000   -68.0000   -68.8000   -70.3000   -68.0000   -66.4000   -68.0000   -68.8000   -68.8000   -67.2000   -69.5000   -69.5000   -68.0000   -67.2000   -68.0000   -68.0000   -66.4000   -68.0000   -67.2000   -68.0000   -68.8000   -66.4000   -68.0000   -69.5000   -70.3000   -70.3000   -69.5000   -67.2000   -67.2000   -68.8000   -68.0000   -65.6000   -68.8000   -68.0000   -67.2000   -68.0000   -66.4000   -66.4000   -66.4000   -65.6000   -67.2000   -67.2000   -66.4000   -64.1000   -66.4000   -67.2000   -68.0000   -66.4000   -67.2000   -67.2000   -67.2000   -68.8000   -68.8000   -66.4000   -67.2000   -66.4000   -68.0000   -67.2000   -66.4000   -68.0000   -65.6000   -65.6000   -65.6000   -68.0000   -68.0000   -67.2000   -67.2000   -68.0000   -69.5000   -68.0000   -67.2000   -69.5000   -71.9000   -68.8000   -68.0000   -68.8000   -69.5000   -69.5000   -68.0000   -68.0000   -66.4000   -66.4000   -64.8000   -65.6000   -65.6000   -65.6000   -66.4000   -67.2000   -68.0000   -66.4000   -68.8000   -68.0000   -69.5000   -71.1000   -68.0000   -69.5000   -71.9000   -71.1000   -69.5000   -69.5000   -68.8000   -67.2000   -70.3000   -68.0000   -66.4000   -68.0000   -72.7000   -71.1000   -68.8000   -67.2000   -66.4000   -69.5000   -68.8000   -68.0000   -68.0000   -68.0000   -67.2000   -68.0000   -68.8000   -69.5000   -69.5000   -68.8000   -70.3000   -69.5000   -68.0000   -68.8000   -68.0000   -68.8000   -67.2000   -68.0000   -68.8000   -68.0000   -65.6000   -68.0000   -67.2000   -67.2000   -69.5000   -70.3000   -69.5000   -68.8000   -66.4000   -67.2000   -68.0000   -69.5000   -71.1000   -71.9000   -70.3000   -68.8000   -67.2000   -68.8000   -68.8000   -69.5000   -69.5000   -68.0000   -66.4000   -68.0000   -69.5000   -68.8000   -68.8000   -67.2000   -67.2000   -66.4000   -65.6000   -67.2000   -67.2000   -68.0000   -67.2000   -67.2000   -65.6000   -65.6000   -67.2000   -68.8000   -69.5000   -68.0000   -67.2000   -69.5000   -68.8000   -68.0000   -70.3000   -68.8000   -68.0000   -64.8000   -66.4000   -68.8000   -69.5000   -68.8000   -67.2000   -66.4000   -66.4000   -66.4000   -68.8000   -68.0000   -66.4000   -65.6000   -64.8000   -65.6000   -67.2000   -68.8000   -68.0000   -68.8000   -68.0000   -68.0000   -67.2000   -67.2000   -69.5000   -68.0000   -66.4000   -67.2000   -68.8000   -71.9000   -69.5000   -68.0000   -68.8000   -66.4000   -67.2000   -66.4000   -67.2000   -67.2000   -68.0000   -67.2000   -68.0000   -68.8000   -68.0000   -66.4000   -67.2000   -66.4000   -67.2000   -68.0000   -69.5000   -68.0000   -68.0000   -67.2000   -68.8000   -67.2000   -65.6000   -66.4000   -68.0000   -65.6000   -66.4000   -67.2000   -68.0000   -68.8000   -68.8000   -67.2000   -64.8000   -66.4000   -71.1000   -74.2000   -76.6000   -80.5000   -82.8000   -81.3000   -82.0000   -85.2000   -86.7000   -84.4000   -84.4000   -82.0000   -80.5000   -82.0000   -82.0000   -80.5000   -79.7000   -80.5000   -80.5000   -81.3000   -81.3000   -80.5000   -78.9000   -78.9000   -78.1000   -77.3000   -79.7000   -82.0000   -79.7000   -78.1000   -75.8000   -75.8000   -78.9000   -78.9000   -76.6000   -76.6000   -76.6000   -79.7000   -77.3000   -74.2000   -74.2000   -73.4000   -75.8000   -75.8000   -75.0000   -71.9000   -71.1000   -71.1000   -71.9000   -71.9000   -71.9000   -69.5000   -68.8000   -68.0000   -67.2000   -68.0000   -69.5000   -68.8000   -68.0000   -68.0000   -68.0000   -67.2000   -68.0000   -68.0000   -68.8000   -68.0000   -67.2000   -68.0000   -66.4000   -62.5000   -63.3000   -66.4000   -67.2000   -64.1000   -61.7000   -63.3000   -64.8000   -64.1000   -64.8000   -66.4000   -64.8000   -65.6000   -64.1000   -63.3000   -61.7000   -62.5000   -64.1000   -61.7000   -62.5000   -65.6000   -66.4000   -64.1000   -60.9000   -62.5000   -62.5000   -63.3000   -63.3000   -62.5000   -61.7000   -63.3000   -63.3000   -63.3000   -63.3000   -65.6000   -64.8000   -64.1000   -64.8000   -64.1000   -64.1000   -66.4000   -63.3000   -62.5000   -64.8000   -64.1000   -67.2000   -65.6000   -64.8000   -64.1000   -67.2000   -67.2000   -64.8000   -66.4000   -65.6000   -66.4000   -65.6000   -65.6000   -64.1000   -64.8000   -64.1000   -64.1000   -65.6000   -66.4000   -62.5000   -62.5000   -64.8000   -61.7000   -63.3000   -64.1000   -64.1000   -63.3000   -64.1000   -61.7000   -62.5000   -62.5000   -63.3000   -63.3000   -64.1000   -64.1000   -61.7000   -63.3000   -60.9000   -64.1000   -63.3000   -64.1000   -62.5000   -60.9000   -60.9000   -61.7000   -64.1000   -62.5000   -59.4000   -60.9000   -64.1000   -61.7000   -60.2000   -62.5000   -61.7000   -60.2000   -61.7000   -61.7000   -60.2000   -59.4000   -60.9000   -58.6000   -57.8000   -57.0000   -56.3000   -57.8000   -57.8000   -58.6000   -59.4000   -57.8000   -58.6000   -60.9000   -60.2000   -60.2000   -58.6000   -61.7000   -60.2000   -55.5000   -57.8000   -57.8000   -60.9000   -62.5000   -60.2000   -59.4000   -63.3000   -60.2000   -58.6000   -60.2000   -61.7000   -60.9000   -63.3000   -61.7000   -64.8000   -64.8000   -61.7000   -61.7000   -61.7000   -63.3000   -64.8000   -64.8000   -62.5000   -63.3000   -64.1000   -63.3000   -64.1000   -64.8000   -64.1000   -64.8000   -63.3000   -64.1000   -63.3000   -63.3000   -64.8000   -65.6000   -64.1000   -64.1000   -66.4000   -65.6000   -64.1000   -64.8000   -64.8000   -65.6000   -63.3000   -61.7000   -63.3000   -62.5000   -61.7000   -64.1000   -64.8000   -63.3000   -64.1000   -64.1000   -63.3000   -64.1000   -64.1000   -61.7000   -63.3000   -64.8000   -66.4000   -64.8000   -64.1000   -61.7000   -64.1000   -64.8000   -63.3000   -60.2000   -60.2000   -60.9000   -61.7000   -64.1000   -61.7000   -63.3000   -63.3000   -63.3000   -62.5000   -62.5000   -61.7000   -61.7000   -60.2000   -60.9000   -59.4000   -56.3000   -57.0000   -56.3000   -57.8000   -56.3000   -56.3000   -58.6000   -59.4000   -60.9000   -62.5000   -62.5000   -61.7000   -61.7000   -64.1000   -69.5000   -69.5000   -68.8000   -71.1000   -69.5000   -71.1000   -70.3000   -71.9000   -77.3000   -75.0000   -75.8000   -76.6000   -77.3000   -78.9000   -80.5000   -83.6000   -84.4000   -81.3000   -82.8000   -82.0000   -82.0000   -82.0000   -82.8000   -83.6000   -82.8000   -80.5000   -82.0000   -82.8000   -82.0000   -78.9000   -78.9000   -78.9000   -78.1000   -77.3000   -77.3000   -78.1000   -78.1000   -77.3000   -75.0000   -75.0000   -75.8000   -75.8000   -77.3000   -77.3000   -76.6000   -75.0000   -74.2000   -74.2000   -73.4000   -75.0000   -75.0000   -75.0000   -71.9000   -75.0000   -74.2000   -71.9000   -73.4000   -69.5000   -69.5000   -71.1000   -72.7000   -71.9000   -70.3000   -69.5000   -71.1000   -69.5000   -68.8000   -71.1000   -69.5000   -66.4000   -68.8000   -68.0000   -67.2000   -68.0000   -65.6000   -68.8000   -68.8000   -68.8000   -66.4000   -67.2000   -69.5000   -66.4000   -69.5000   -76.6000   -78.1000   -79.7000   -79.7000   -78.9000   -78.1000   -77.3000   -81.3000   -82.8000   -82.0000   -79.7000   -79.7000   -79.7000   -79.7000   -79.7000   -81.3000   -81.3000   -77.3000   -71.9000   -70.3000   -71.9000   -70.3000   -70.3000   -71.1000   -69.5000   -69.5000   -73.4000   -73.4000   -71.1000   -68.8000   -70.3000   -74.2000   -75.0000   -73.4000   -69.5000   -74.2000   -74.2000   -75.8000   -75.8000   -75.0000   -75.0000   -75.8000   -76.6000   -77.3000   -76.6000   -76.6000   -78.9000   -78.1000   -78.9000   -78.9000   -78.9000   -79.7000   -76.6000   -78.9000   -78.9000   -79.7000   -78.1000   -77.3000   -77.3000   -77.3000   -78.1000   -80.5000   -78.9000   -78.1000   -76.6000   -78.9000   -81.3000   -78.9000   -80.5000   -82.0000   -81.3000   -81.3000   -81.3000   -82.8000   -83.6000   -82.0000   -80.5000   -82.8000   -82.0000   -81.3000   -82.8000   -84.4000   -82.0000   -82.0000   -82.0000   -82.8000   -81.3000   -80.5000   -82.8000   -84.4000   -88.3000   -86.7000   -87.5000   -87.5000   -85.2000   -85.2000   -84.4000   -84.4000   -85.9000   -88.3000   -84.4000   -82.0000   -81.3000   -82.8000   -84.4000   -85.9000   -82.0000   -82.0000   -85.9000   -84.4000   -82.0000   -80.5000   -79.7000   -78.9000   -79.7000   -78.1000   -78.9000   -79.7000   -78.9000   -75.8000   -75.0000   -75.0000   -75.0000   -76.6000   -75.0000   -75.0000   -75.0000   -71.9000   -75.8000   -74.2000   -73.4000   -71.9000   -75.0000   -72.7000   -74.2000   -74.2000   -75.8000   -73.4000   -75.0000   -74.2000   -73.4000   -75.0000   -76.6000   -75.0000   -74.2000   -76.6000   -75.8000   -76.6000   -75.8000   -76.6000   -77.3000   -85.9000   -87.5000   -85.9000   -87.5000   -89.1000   -90.6000   -89.8000   -90.6000   -91.4000   -91.4000   -91.4000   -91.4000   -91.4000   -93.0000   -95.3000   -94.5000   -94.5000   -96.1000   -89.1000   -85.2000   -87.5000   -86.7000   -82.8000   -83.6000   -86.7000   -87.5000   -88.3000   -89.1000   -87.5000   -86.7000   -85.9000   -87.5000   -90.6000   -91.4000   -92.2000   -91.4000   -89.1000   -87.5000   -85.9000   -88.3000   -89.8000   -89.8000   -86.7000   -87.5000   -84.4000   -87.5000   -89.8000   -92.2000   -95.3000   -96.1000   -96.9000  -100.8000  -102.3000  -103.9000  -101.6000  -100.8000   -98.4000  -101.6000  -103.1000  -100.8000   -98.4000   -99.2000   -97.7000   -96.1000   -94.5000   -93.8000   -94.5000   -95.3000   -96.1000   -96.9000   -94.5000   -93.0000   -94.5000   -93.0000   -91.4000   -90.6000   -90.6000   -93.0000   -91.4000   -89.1000   -87.5000   -86.7000   -85.2000   -87.5000   -87.5000   -87.5000   -87.5000   -87.5000   -85.9000   -83.6000   -82.8000   -82.0000   -81.3000   -82.0000   -79.7000   -80.5000   -77.3000   -78.9000   -78.9000   -79.7000   -79.7000   -77.3000   -75.0000   -74.2000   -75.8000   -76.6000   -73.4000   -73.4000   -75.8000   -73.4000   -71.9000   -72.7000   -72.7000   -74.2000   -74.2000   -75.0000   -75.0000   -73.4000   -72.7000   -75.0000   -75.8000   -73.4000   -71.1000   -71.9000   -73.4000   -75.0000   -72.7000   -72.7000   -75.0000   -73.4000   -75.0000   -71.9000   -71.9000   -71.9000   -74.2000   -73.4000   -73.4000   -72.7000   -72.7000   -75.0000   -73.4000   -71.9000   -70.3000   -71.9000   -71.1000   -72.7000   -71.9000   -72.7000   -72.7000   -74.2000   -73.4000   -75.0000   -82.8000   -83.6000   -84.4000   -85.2000   -83.6000   -82.0000   -86.7000   -87.5000   -84.4000   -86.7000   -86.7000   -86.7000   -85.9000   -85.9000   -86.7000   -89.1000   -87.5000   -78.9000   -73.4000   -71.9000   -72.7000   -74.2000   -72.7000   -74.2000   -74.2000   -75.0000   -74.2000   -74.2000   -75.0000   -76.6000   -75.0000   -73.4000   -71.1000   -71.1000   -73.4000   -71.9000   -74.2000   -75.0000   -75.0000   -74.2000   -74.2000   -74.2000   -75.0000   -73.4000   -73.4000   -73.4000   -74.2000   -73.4000   -73.4000   -74.2000   -71.9000   -69.5000   -71.1000   -71.9000   -70.3000   -70.3000   -70.3000   -70.3000   -71.1000   -69.5000   -71.1000   -71.9000   -70.3000   -71.9000   -71.1000   -68.8000   -67.2000   -67.2000   -68.0000   -68.8000   -68.8000   -65.6000   -68.8000   -68.8000   -68.8000   -68.0000   -68.8000   -68.8000   -68.0000   -66.4000   -70.3000   -69.5000   -67.2000   -67.2000   -68.0000   -69.5000   -70.3000   -72.7000   -70.3000   -69.5000   -72.7000   -73.4000   -74.2000   -71.1000   -73.4000   -73.4000   -74.2000   -75.0000   -73.4000   -73.4000   -74.2000   -75.0000   -74.2000   -76.6000   -75.8000   -75.0000   -76.6000   -78.1000   -76.6000   -78.9000   -75.8000   -75.8000   -77.3000   -76.6000   -74.2000   -75.0000   -76.6000   -76.6000   -73.4000   -75.0000   -75.8000   -75.8000   -74.2000   -74.2000   -73.4000   -76.6000   -76.6000   -78.1000   -76.6000   -72.7000   -75.0000   -79.7000   -79.7000   -78.9000   -75.0000   -73.4000   -75.8000   -75.8000   -75.8000   -76.6000   -78.1000   -79.7000   -77.3000   -77.3000   -77.3000   -77.3000   -75.8000   -77.3000   -78.1000   -78.1000   -81.3000   -86.7000   -85.9000   -87.5000   -85.2000   -82.8000   -85.9000   -87.5000   -84.4000   -82.8000   -82.0000   -82.0000   -82.8000   -84.4000   -82.8000   -83.6000   -80.5000   -83.6000   -80.5000   -74.2000   -74.2000   -72.7000   -70.3000   -71.1000   -71.1000   -72.7000   -68.0000   -68.8000   -70.3000   -70.3000   -70.3000   -71.1000   -68.8000   -68.0000   -68.8000   -68.0000   -67.2000   -66.4000   -68.8000   -68.0000   -68.8000   -67.2000   -64.1000   -64.8000   -68.0000   -67.2000   -66.4000   -67.2000   -67.2000   -68.0000   -68.0000   -68.0000   -68.0000   -68.0000   -67.2000   -67.2000   -67.2000   -66.4000   -68.0000   -68.8000   -68.0000   -68.0000   -68.0000   -70.3000   -69.5000   -68.0000   -68.0000   -67.2000   -70.3000   -71.9000   -70.3000   -69.5000   -69.5000   -70.3000   -69.5000   -68.8000   -66.4000   -67.2000   -68.0000   -69.5000   -68.8000   -64.8000   -68.0000   -70.3000   -71.1000   -72.7000   -71.1000   -71.1000   -71.1000   -71.1000   -69.5000   -70.3000   -69.5000   -70.3000   -71.9000   -71.9000   -73.4000   -75.0000   -75.8000   -72.7000   -72.7000   -75.0000   -75.8000   -75.8000   -75.0000   -75.8000   -72.7000   -72.7000   -71.9000   -71.1000   -71.9000   -71.9000   -74.2000   -71.9000   -73.4000   -73.4000   -74.2000   -75.8000   -73.4000   -75.8000   -76.6000   -75.8000   -75.0000   -75.0000   -75.8000   -74.2000   -75.0000   -75.8000   -76.6000   -75.0000   -72.7000   -72.7000   -71.9000   -74.2000   -74.2000   -74.2000   -73.4000   -74.2000   -72.7000   -71.1000   -72.7000   -75.0000   -74.2000   -72.7000   -72.7000   -74.2000   -75.0000   -73.4000   -71.1000   -71.9000   -71.9000   -71.9000   -74.2000   -74.2000   -75.0000   -75.0000   -73.4000   -68.8000   -70.3000   -72.7000   -71.9000   -71.9000   -73.4000   -73.4000   -73.4000   -76.6000   -76.6000   -75.0000   -73.4000   -73.4000   -74.2000   -74.2000   -74.2000   -74.2000   -74.2000   -74.2000   -74.2000   -73.4000   -74.2000   -75.8000   -75.0000   -73.4000   -74.2000   -74.2000   -76.6000   -73.4000   -71.9000   -71.9000   -71.1000   -74.2000   -71.9000   -73.4000   -71.1000   -73.4000   -75.0000   -75.0000   -75.0000   -76.6000   -75.8000   -75.8000   -76.6000   -76.6000   -75.8000   -76.6000   -78.1000   -76.6000   -75.8000   -75.8000   -75.8000   -75.8000   -75.0000   -75.0000   -75.8000   -77.3000   -75.8000   -77.3000   -77.3000   -73.4000   -72.7000   -72.7000   -73.4000   -74.2000   -74.2000   -74.2000   -73.4000   -73.4000   -71.9000   -72.7000   -74.2000   -75.8000   -77.3000   -75.0000   -73.4000   -76.6000   -75.0000   -74.2000   -75.0000   -71.1000   -71.9000   -72.7000   -71.9000   -74.2000   -75.8000   -73.4000   -74.2000   -72.7000   -74.2000   -73.4000   -71.1000   -73.4000   -73.4000   -72.7000   -73.4000   -72.7000   -69.5000   -71.1000   -74.2000   -74.2000   -71.1000   -74.2000   -73.4000   -69.5000   -70.3000   -71.9000   -70.3000   -70.3000   -70.3000   -69.5000   -69.5000   -70.3000   -72.7000   -70.3000   -70.3000   -73.4000   -73.4000   -75.0000   -76.6000   -75.0000   -75.0000   -76.6000   -76.6000   -77.3000   -79.7000   -80.5000   -81.3000   -79.7000   -80.5000   -79.7000   -80.5000   -79.7000   -81.3000   -82.0000   -82.0000   -80.5000   -78.9000   -80.5000   -80.5000   -79.7000   -79.7000   -78.9000   -78.9000   -79.7000   -79.7000   -78.1000   -77.3000   -75.8000   -75.0000   -74.2000   -75.8000   -77.3000   -77.3000   -72.7000   -74.2000   -74.2000   -73.4000   -77.3000   -78.1000   -76.6000   -74.2000   -73.4000   -74.2000   -74.2000   -74.2000   -74.2000   -74.2000   -75.8000   -75.8000   -75.0000   -75.8000   -74.2000   -74.2000   -76.6000   -75.8000   -73.4000   -77.3000   -78.9000   -79.7000   -77.3000   -78.1000   -78.1000   -78.9000   -78.9000   -78.1000   -78.9000   -78.9000   -78.1000   -75.0000   -75.8000   -77.3000   -78.1000   -78.9000   -79.7000   -78.1000   -78.9000   -78.9000   -78.9000   -76.6000   -76.6000   -78.1000   -77.3000   -78.9000   -81.3000   -85.9000   -85.9000   -84.4000   -81.3000   -79.7000   -82.8000   -83.6000   -83.6000   -87.5000   -86.7000   -89.1000   -87.5000   -86.7000   -85.2000   -89.1000   -88.3000   -90.6000   -90.6000   -88.3000   -89.8000   -89.8000   -85.9000   -87.5000   -87.5000   -86.7000   -87.5000   -89.1000   -86.7000   -86.7000   -86.7000   -89.1000   -86.7000   -88.3000   -89.8000   -89.8000   -88.3000   -87.5000   -86.7000   -85.2000   -83.6000   -84.4000   -85.9000   -87.5000   -88.3000   -87.5000   -88.3000   -89.1000   -89.1000   -85.2000   -85.9000   -89.8000   -87.5000   -85.9000   -85.9000   -87.5000   -88.3000   -86.7000   -87.5000   -88.3000   -86.7000   -85.9000   -89.1000   -85.2000   -82.8000   -82.8000   -84.4000   -85.2000   -82.0000   -82.8000   -83.6000   -82.0000   -80.5000   -79.7000   -82.8000   -84.4000   -83.6000   -81.3000   -81.3000   -82.0000   -82.8000   -80.5000   -78.9000   -77.3000   -78.9000   -80.5000   -82.8000   -83.6000   -81.3000   -79.7000   -80.5000   -80.5000   -82.0000   -82.0000   -80.5000   -79.7000   -77.3000   -78.9000   -80.5000   -78.1000   -76.6000   -77.3000   -76.6000   -75.8000   -78.9000   -75.8000   -75.0000   -75.0000   -75.0000   -76.6000   -77.3000   -78.9000   -79.7000   -78.9000   -78.1000   -76.6000   -74.2000   -71.1000   -75.0000   -75.8000   -76.6000   -76.6000   -77.3000   -74.2000   -75.8000   -72.7000   -72.7000   -73.4000   -73.4000   -73.4000   -71.1000   -73.4000   -75.8000   -74.2000   -71.9000   -72.7000   -74.2000   -73.4000   -71.9000   -71.9000   -71.9000   -75.8000   -71.9000   -71.1000   -72.7000   -75.0000   -71.9000   -75.0000   -74.2000   -74.2000   -76.6000   -76.6000   -76.6000   -78.1000   -76.6000   -74.2000   -75.8000   -78.1000   -78.9000   -77.3000   -75.8000   -75.8000   -75.8000   -75.0000   -78.1000   -78.9000   -78.9000   -78.1000   -78.9000   -78.1000   -78.9000   -81.3000   -78.9000   -78.1000   -78.1000   -77.3000   -78.9000   -78.9000   -80.5000   -77.3000   -75.0000   -77.3000   -78.9000   -78.1000   -77.3000   -75.8000   -78.9000   -78.1000   -80.5000   -79.7000   -78.9000   -79.7000   -78.9000   -78.9000   -78.9000   -77.3000   -76.6000   -77.3000   -78.9000   -79.7000   -78.1000   -81.3000   -82.0000   -81.3000   -81.3000   -81.3000   -80.5000   -80.5000   -81.3000   -80.5000   -79.7000   -80.5000   -81.3000   -80.5000   -80.5000   -79.7000   -82.8000   -81.3000   -81.3000   -82.8000   -85.2000   -80.5000   -78.9000   -80.5000   -81.3000   -81.3000   -79.7000   -78.9000   -79.7000   -80.5000   -81.3000   -80.5000   -79.7000   -80.5000   -82.0000   -82.8000   -79.7000   -79.7000   -81.3000   -80.5000   -81.3000   -82.0000   -82.0000   -82.0000   -81.3000   -79.7000   -80.5000   -80.5000   -80.5000   -79.7000   -81.3000   -80.5000   -79.7000   -79.7000   -82.8000   -83.6000   -80.5000   -81.3000   -79.7000   -78.9000   -79.7000   -79.7000   -77.3000   -77.3000   -76.6000   -75.8000   -78.1000   -75.0000   -75.0000   -76.6000   -75.0000   -75.8000   -75.8000   -73.4000   -74.2000   -75.0000   -74.2000   -72.7000   -73.4000   -71.9000   -74.2000   -75.8000   -71.1000   -73.4000   -76.6000   -73.4000   -74.2000   -76.6000   -77.3000   -73.4000   -75.8000   -74.2000   -74.2000   -75.8000   -75.0000   -71.9000   -73.4000   -77.3000   -75.8000   -73.4000   -72.7000   -75.0000   -75.8000   -77.3000   -76.6000   -75.0000   -77.3000   -75.0000   -76.6000   -76.6000   -75.8000   -78.9000   -76.6000   -76.6000   -75.8000   -77.3000   -78.9000   -75.0000   -77.3000   -75.8000   -77.3000   -78.1000   -78.9000   -78.1000   -78.9000   -78.1000   -77.3000   -75.8000   -77.3000   -76.6000   -79.7000   -78.1000   -77.3000   -76.6000   -78.9000   -77.3000   -76.6000   -78.1000   -78.9000   -77.3000   -76.6000   -75.8000   -75.8000   -76.6000   -78.1000   -79.7000   -78.1000   -78.1000   -76.6000   -78.1000   -78.9000   -75.8000   -75.8000   -76.6000   -75.0000   -78.1000   -79.7000   -78.9000   -79.7000   -78.9000   -78.9000   -79.7000   -78.9000   -78.9000   -79.7000   -79.7000   -79.7000   -79.7000   -78.9000   -77.3000   -79.7000   -79.7000   -78.9000   -78.1000   -78.9000   -77.3000   -78.9000   -78.1000   -77.3000   -77.3000   -77.3000   -77.3000   -77.3000   -78.9000   -76.6000   -75.0000   -78.9000   -79.7000   -78.9000   -78.9000   -75.8000   -75.8000   -75.8000   -75.0000   -75.0000   -78.9000   -78.9000   -78.9000   -78.9000   -76.6000   -76.6000   -77.3000   -78.1000   -77.3000   -75.0000   -77.3000   -77.3000   -75.8000   -73.4000   -74.2000   -78.1000   -77.3000   -76.6000   -77.3000   -78.1000   -76.6000   -78.1000   -77.3000   -75.0000   -75.8000   -77.3000   -76.6000   -76.6000   -76.6000   -75.8000   -77.3000   -78.9000   -75.8000   -76.6000   -78.1000   -78.1000   -75.8000   -75.8000   -75.0000   -75.0000   -75.0000   -77.3000   -78.1000   -76.6000   -74.2000   -76.6000   -77.3000   -75.8000   -77.3000   -76.6000   -74.2000   -75.8000   -78.1000   -78.9000   -78.1000   -77.3000   -76.6000   -73.4000   -75.8000   -76.6000   -76.6000   -76.6000   -75.8000   -76.6000   -78.1000   -78.1000   -79.7000   -78.1000   -76.6000   -78.1000   -75.0000   -74.2000   -77.3000   -75.0000   -74.2000   -76.6000   -76.6000   -76.6000   -75.8000   -75.0000   -75.0000   -76.6000   -75.8000   -75.8000   -77.3000   -78.9000   -77.3000   -77.3000   -75.8000   -76.6000   -77.3000   -76.6000   -75.8000   -75.8000   -75.8000   -77.3000   -80.5000   -78.9000   -78.1000   -76.6000   -78.9000   -77.3000   -77.3000   -74.2000   -76.6000   -77.3000   -78.1000   -76.6000   -76.6000   -75.8000   -78.9000   -78.1000   -76.6000   -75.8000   -74.2000   -72.7000   -73.4000   -76.6000   -75.8000   -76.6000   -78.1000   -76.6000   -78.1000   -78.9000   -77.3000   -75.0000   -75.0000   -76.6000   -76.6000   -76.6000   -76.6000   -76.6000   -77.3000   -76.6000   -77.3000   -75.8000   -76.6000   -77.3000   -76.6000   -78.1000   -74.2000   -73.4000   -77.3000   -77.3000   -77.3000   -78.1000   -76.6000   -77.3000   -76.6000   -77.3000   -77.3000   -77.3000   -75.0000   -75.8000   -76.6000   -75.8000   -75.0000   -77.3000   -76.6000   -78.1000   -75.0000   -74.2000   -75.8000   -78.9000   -79.7000   -77.3000   -78.1000   -77.3000   -77.3000   -77.3000   -75.0000   -74.2000   -75.0000   -75.0000   -75.0000   -75.0000   -73.4000   -74.2000   -75.0000   -72.7000   -72.7000   -73.4000   -74.2000   -74.2000   -74.2000   -73.4000   -73.4000   -68.8000   -71.1000   -75.8000   -76.6000   -74.2000   -75.0000   -73.4000   -74.2000   -71.9000   -71.1000   -71.9000   -74.2000   -73.4000   -72.7000   -72.7000   -73.4000   -73.4000   -75.0000   -76.6000   -74.2000   -74.2000   -73.4000   -74.2000   -71.1000   -72.7000   -73.4000   -74.2000   -73.4000   -72.7000   -69.5000   -72.7000   -72.7000   -69.5000   -70.3000   -75.8000   -75.8000   -74.2000   -72.7000   -71.1000   -75.8000   -77.3000   -77.3000   -78.1000   -75.8000   -75.8000   -75.8000   -75.0000   -73.4000   -72.7000   -74.2000   -71.1000   -73.4000   -76.6000   -73.4000   -74.2000   -71.1000   -72.7000   -74.2000   -74.2000   -74.2000   -74.2000   -75.8000   -74.2000   -74.2000   -76.6000   -73.4000   -73.4000   -70.3000   -73.4000   -74.2000   -72.7000   -75.8000   -75.8000   -71.9000   -71.9000   -75.8000   -76.6000   -75.0000   -76.6000   -76.6000   -74.2000   -75.8000   -77.3000   -77.3000   -76.6000   -74.2000   -71.9000   -75.0000   -75.0000   -73.4000   -71.9000   -73.4000   -75.0000   -74.2000   -72.7000   -73.4000   -75.0000   -74.2000   -71.1000   -73.4000   -72.7000   -73.4000   -75.0000   -74.2000   -74.2000   -74.2000   -74.2000   -75.0000   -71.9000   -74.2000   -71.9000   -73.4000   -73.4000   -72.7000   -72.7000   -73.4000   -75.0000   -73.4000   -70.3000   -72.7000   -73.4000   -73.4000   -75.0000   -71.9000   -70.3000   -71.9000   -71.9000   -69.5000   -70.3000   -70.3000   -70.3000   -69.5000   -69.5000   -69.5000   -73.4000   -73.4000   -71.1000   -70.3000   -70.3000   -71.9000   -71.9000   -74.2000   -73.4000   -72.7000   -70.3000   -71.1000   -73.4000   -70.3000   -69.5000   -71.1000   -69.5000   -68.8000   -71.1000   -68.8000   -71.1000   -73.4000   -71.1000   -69.5000   -69.5000   -68.8000   -69.5000   -70.3000   -68.0000   -67.2000   -68.0000   -70.3000   -70.3000   -68.0000   -68.8000   -68.8000   -68.8000   -70.3000   -69.5000   -69.5000   -71.1000   -71.1000   -71.9000   -69.5000   -70.3000   -71.1000   -73.4000   -71.9000   -71.9000   -74.2000   -73.4000   -73.4000   -70.3000   -69.5000   -70.3000   -71.1000   -70.3000   -70.3000   -72.7000   -73.4000   -73.4000   -73.4000   -71.1000   -71.1000   -69.5000   -69.5000   -71.9000   -71.9000   -74.2000   -73.4000   -71.9000   -70.3000   -69.5000   -71.1000   -74.2000   -73.4000   -73.4000   -73.4000   -76.6000   -75.8000   -73.4000   -71.9000   -71.1000   -71.9000   -73.4000   -74.2000   -76.6000   -72.7000   -69.5000   -69.5000   -73.4000   -73.4000   -71.9000   -72.7000   -71.1000   -71.9000   -73.4000   -74.2000   -72.7000   -75.8000   -73.4000   -72.7000   -71.1000   -72.7000   -72.7000   -71.9000   -73.4000   -72.7000   -73.4000   -72.7000   -73.4000   -71.9000   -68.8000   -72.7000   -74.2000   -72.7000   -71.9000   -73.4000   -74.2000   -73.4000   -71.9000   -71.9000   -69.5000   -69.5000   -71.1000   -68.8000   -70.3000   -68.8000   -68.0000   -69.5000   -68.8000   -68.0000   -68.8000   -69.5000   -68.8000   -69.5000   -70.3000   -71.1000   -70.3000   -71.1000   -71.9000   -71.9000   -68.8000   -70.3000   -71.9000   -71.9000   -70.3000   -68.8000   -68.0000   -69.5000   -70.3000   -67.2000   -68.8000   -68.8000   -67.2000   -67.2000   -67.2000   -68.0000   -68.8000   -69.5000   -68.8000   -68.8000   -69.5000   -68.8000   -68.8000   -70.3000   -67.2000   -64.1000   -66.4000   -67.2000   -65.6000   -64.1000   -64.8000   -64.1000   -65.6000   -66.4000   -67.2000   -67.2000   -66.4000   -68.0000   -68.8000   -67.2000   -67.2000   -68.0000   -66.4000   -68.0000   -68.0000   -68.0000   -69.5000   -68.0000   -66.4000   -66.4000   -68.8000   -66.4000   -66.4000   -65.6000   -66.4000   -66.4000   -64.8000   -62.5000   -66.4000   -64.8000   -63.3000   -62.5000   -62.5000   -64.1000   -66.4000   -67.2000   -66.4000   -64.8000   -65.6000   -64.8000   -65.6000   -65.6000   -64.1000   -64.8000   -65.6000   -67.2000   -65.6000   -65.6000   -65.6000   -64.1000   -64.1000   -65.6000   -64.8000   -64.1000   -66.4000   -69.5000   -69.5000   -70.3000   -68.0000   -66.4000   -66.4000   -68.0000   -68.0000   -65.6000   -63.3000   -64.8000   -64.8000   -63.3000   -62.5000   -64.1000   -65.6000   -64.8000   -64.8000   -64.8000   -63.3000   -64.1000   -63.3000   -64.1000   -65.6000   -65.6000   -68.0000   -69.5000   -70.3000   -70.3000   -69.5000   -68.8000   -69.5000   -71.1000   -69.5000   -68.8000   -68.0000   -67.2000   -68.0000   -67.2000   -64.1000   -68.0000   -71.1000   -72.7000   -74.2000   -76.6000   -78.1000   -78.1000   -77.3000   -78.9000   -79.7000   -81.3000   -81.3000   -78.9000   -79.7000   -79.7000   -79.7000   -77.3000   -76.6000   -75.0000   -74.2000   -71.1000   -68.8000   -71.1000   -75.0000   -74.2000   -76.6000   -78.9000   -81.3000   -82.0000   -82.8000   -83.6000   -83.6000   -86.7000   -87.5000   -90.6000   -88.3000   -86.7000   -85.9000   -86.7000   -85.9000   -82.8000   -85.9000   -84.4000   -86.7000   -85.2000   -81.3000   -78.9000   -79.7000   -82.0000   -79.7000   -78.1000   -78.1000   -79.7000   -80.5000   -79.7000   -77.3000   -80.5000   -78.9000   -75.8000   -75.8000   -77.3000   -78.9000   -81.3000   -79.7000   -79.7000   -79.7000   -81.3000   -79.7000   -78.1000   -78.1000   -78.9000   -78.1000   -78.1000   -78.1000   -79.7000   -79.7000   -79.7000   -79.7000   -77.3000   -73.4000   -75.0000   -74.2000   -75.0000   -74.2000   -71.1000   -70.3000   -74.2000   -72.7000   -71.1000   -69.5000   -70.3000   -68.0000   -68.0000   -70.3000   -69.5000   -68.8000   -68.0000   -68.8000   -68.0000   -67.2000   -68.8000   -65.6000   -65.6000   -67.2000   -66.4000   -65.6000   -65.6000   -64.8000   -66.4000   -65.6000   -64.8000   -64.1000   -64.1000   -62.5000   -59.4000   -57.8000   -59.4000   -60.9000   -60.2000   -57.0000   -59.4000   -60.2000   -59.4000   -57.0000   -57.8000   -59.4000   -60.2000   -60.2000   -57.8000   -58.6000   -58.6000   -60.9000   -60.9000   -60.2000   -63.3000   -61.7000   -60.2000   -64.8000   -65.6000   -64.8000   -65.6000   -66.4000   -66.4000   -65.6000   -68.0000   -70.3000   -71.9000   -72.7000   -73.4000   -72.7000   -71.1000   -72.7000   -72.7000   -73.4000   -73.4000   -75.0000   -75.8000   -75.0000   -75.0000   -75.8000   -75.8000   -75.0000   -75.0000   -74.2000   -75.8000   -76.6000   -78.9000   -81.3000   -80.5000   -78.9000   -78.9000   -79.7000   -79.7000   -80.5000   -79.7000   -80.5000   -80.5000   -78.9000   -77.3000   -78.9000   -78.9000   -77.3000   -75.0000   -77.3000   -78.1000   -75.0000   -76.6000   -76.6000   -75.0000   -76.6000   -79.7000   -78.9000   -78.1000   -76.6000   -78.9000   -78.9000   -80.5000   -80.5000   -79.7000   -78.9000   -76.6000   -75.8000   -76.6000   -78.1000   -78.1000   -78.9000   -78.9000   -79.7000   -78.1000   -78.1000   -79.7000   -78.1000   -75.8000   -77.3000   -77.3000   -77.3000   -77.3000   -75.0000   -75.0000   -75.0000   -73.4000   -73.4000   -75.0000   -73.4000   -72.7000   -74.2000   -71.9000   -73.4000   -74.2000   -74.2000   -74.2000   -71.1000   -71.1000   -73.4000   -75.8000   -72.7000   -72.7000   -74.2000   -74.2000   -72.7000   -71.9000   -71.9000   -73.4000   -72.7000   -71.9000   -72.7000   -75.0000   -75.8000   -75.0000   -75.0000   -73.4000   -72.7000   -74.2000   -75.0000   -73.4000   -71.1000   -72.7000   -74.2000   -71.9000   -73.4000   -73.4000   -70.3000   -70.3000   -69.5000   -71.9000   -71.1000   -70.3000   -70.3000   -70.3000   -71.1000   -73.4000   -70.3000   -68.8000   -70.3000   -71.9000   -70.3000   -71.9000   -71.9000   -71.9000   -72.7000   -72.7000   -70.3000   -71.9000   -74.2000   -75.0000   -71.1000   -71.9000   -71.9000   -71.1000   -70.3000   -69.5000   -71.9000   -70.3000   -70.3000   -72.7000   -70.3000   -72.7000   -72.7000   -70.3000   -74.2000   -71.9000   -71.9000   -70.3000   -69.5000   -69.5000   -71.1000   -74.2000   -73.4000   -73.4000   -74.2000   -71.9000   -71.1000   -70.3000   -68.8000   -68.8000   -71.9000   -70.3000   -68.8000   -71.9000   -71.9000   -71.1000   -71.1000   -71.1000   -71.9000   -72.7000   -75.0000   -75.8000   -78.1000   -74.2000   -72.7000   -71.9000   -76.6000   -76.6000   -74.2000   -75.0000   -74.2000   -71.1000   -71.1000   -71.9000   -71.1000   -72.7000   -73.4000   -73.4000   -74.2000   -72.7000   -71.9000   -70.3000   -69.5000   -68.8000   -70.3000   -71.1000   -68.8000   -68.0000   -68.0000   -67.2000   -67.2000   -69.5000   -68.0000   -68.0000   -68.0000   -67.2000   -66.4000   -68.0000   -68.8000   -67.2000   -68.8000   -68.0000   -66.4000   -64.8000   -64.1000   -62.5000   -64.1000   -64.8000   -65.6000   -65.6000   -64.8000   -62.5000   -62.5000   -64.1000   -64.1000   -61.7000   -63.3000   -64.1000   -61.7000   -62.5000   -62.5000   -64.8000   -63.3000   -64.1000   -65.6000   -64.1000   -65.6000   -66.4000   -66.4000   -67.2000   -65.6000   -64.8000   -64.8000   -64.8000   -62.5000   -62.5000   -63.3000   -61.7000   -61.7000   -61.7000   -60.2000   -60.2000   -60.2000   -57.8000   -57.0000   -57.8000   -57.0000   -57.0000   -57.0000   -55.5000   -55.5000   -54.7000   -57.8000   -60.9000   -59.4000   -58.6000   -60.9000   -62.5000   -64.1000   -61.7000   -60.9000   -64.8000   -66.4000   -68.0000   -68.8000   -67.2000   -70.3000   -71.9000   -73.4000   -73.4000   -71.1000   -71.1000   -75.0000   -75.8000   -76.6000   -73.4000   -75.8000   -77.3000   -78.9000   -78.9000   -75.8000   -78.1000   -80.5000   -80.5000   -82.8000   -81.3000   -80.5000   -83.6000   -81.3000   -80.5000   -82.8000   -80.5000   -79.7000   -79.7000   -78.1000   -78.9000   -79.7000   -81.3000   -82.0000   -77.3000   -79.7000   -79.7000   -78.1000   -78.9000   -80.5000   -81.3000   -78.9000   -82.0000   -81.3000   -81.3000   -80.5000   -81.3000   -79.7000   -78.9000   -78.9000   -79.7000   -82.0000   -82.0000   -80.5000   -80.5000   -80.5000   -82.0000   -80.5000   -80.5000   -79.7000   -79.7000   -80.5000   -79.7000   -78.9000   -80.5000   -82.0000   -80.5000   -80.5000   -79.7000   -80.5000   -82.8000   -85.2000   -83.6000   -82.0000   -82.8000   -82.8000   -80.5000   -82.0000   -82.0000   -81.3000   -82.8000   -82.8000   -84.4000   -84.4000   -83.6000   -84.4000   -82.8000   -81.3000   -82.0000   -82.0000   -82.0000   -80.5000   -82.8000   -82.8000   -82.0000   -80.5000   -81.3000   -80.5000   -78.9000   -80.5000   -82.0000   -82.0000   -82.0000   -80.5000   -80.5000   -81.3000   -80.5000   -82.0000   -81.3000   -82.8000   -84.4000   -83.6000   -82.0000   -80.5000   -78.1000   -78.9000   -80.5000   -79.7000   -77.3000   -78.1000   -78.9000   -80.5000   -79.7000   -79.7000   -80.5000   -78.1000   -77.3000   -78.9000   -78.9000   -78.1000   -78.1000   -75.8000   -78.1000   -76.6000   -77.3000   -77.3000   -76.6000   -77.3000   -76.6000   -76.6000   -76.6000   -72.7000   -75.0000   -74.2000   -73.4000   -73.4000   -75.0000   -75.0000   -73.4000   -74.2000   -73.4000   -73.4000   -73.4000   -74.2000   -75.0000   -75.8000   -73.4000   -75.0000   -77.3000   -76.6000   -75.8000   -77.3000   -76.6000   -78.1000   -75.8000   -75.0000   -75.0000   -76.6000   -75.8000   -76.6000   -76.6000   -76.6000   -78.1000   -76.6000   -75.8000   -75.8000   -74.2000   -75.0000   -77.3000   -76.6000   -76.6000   -75.0000   -75.8000   -75.8000   -75.8000   -75.0000   -76.6000   -75.0000   -76.6000   -76.6000   -76.6000   -77.3000   -75.0000   -75.0000   -73.4000   -74.2000   -77.3000   -78.1000   -75.8000   -75.8000   -74.2000   -76.6000   -78.9000   -77.3000   -74.2000   -71.9000   -75.0000   -76.6000   -75.8000   -75.8000   -78.1000   -77.3000   -74.2000   -75.0000   -75.0000   -71.9000   -71.9000   -71.9000   -74.2000   -74.2000   -72.7000   -69.5000   -76.6000   -76.6000   -72.7000   -76.6000   -75.8000   -75.0000   -71.9000   -73.4000   -76.6000   -76.6000   -75.0000   -72.7000   -73.4000   -71.9000   -74.2000   -72.7000   -68.8000   -70.3000   -70.3000   -68.8000   -68.0000   -67.2000   -68.0000   -67.2000   -69.5000   -71.1000   -70.3000   -71.9000   -73.4000   -71.1000   -75.0000   -74.2000   -73.4000   -72.7000   -75.0000   -71.9000   -71.1000   -72.7000   -75.0000   -73.4000   -72.7000   -71.1000   -70.3000   -71.1000   -71.1000   -71.1000   -74.2000   -74.2000   -71.9000   -73.4000   -71.1000   -71.1000   -70.3000   -70.3000   -71.9000   -71.1000   -71.9000   -70.3000   -69.5000   -71.1000   -70.3000   -70.3000   -68.8000   -73.4000   -72.7000   -68.0000   -69.5000   -71.9000   -71.1000   -72.7000   -72.7000   -72.7000   -74.2000   -74.2000   -75.0000   -78.9000   -75.8000   -78.1000   -78.1000   -79.7000   -81.3000   -82.0000   -83.6000   -82.0000   -82.8000   -82.0000   -82.0000   -84.4000   -86.7000   -85.9000   -84.4000   -87.5000   -89.8000   -86.7000   -87.5000   -86.7000   -89.1000   -91.4000   -92.2000   -91.4000   -90.6000   -89.8000   -89.8000   -89.1000   -88.3000   -87.5000   -85.9000   -89.1000   -90.6000   -90.6000   -89.1000   -86.7000   -86.7000   -87.5000   -86.7000   -85.9000   -84.4000   -84.4000   -84.4000   -86.7000   -87.5000   -84.4000   -84.4000   -85.9000   -84.4000   -82.8000   -83.6000   -82.8000   -81.3000   -78.1000   -80.5000   -82.0000   -80.5000   -78.1000   -79.7000   -80.5000   -78.1000   -76.6000   -76.6000   -78.1000   -77.3000   -77.3000   -77.3000   -76.6000   -77.3000   -75.0000   -74.2000   -75.0000   -76.6000   -74.2000   -72.7000   -76.6000   -75.8000   -72.7000   -72.7000   -72.7000   -74.2000   -74.2000   -74.2000   -73.4000   -73.4000   -71.1000   -74.2000   -75.0000   -71.9000   -75.0000   -75.8000   -75.8000   -74.2000   -75.8000   -73.4000   -73.4000   -74.2000   -73.4000   -72.7000   -73.4000   -74.2000   -73.4000   -72.7000   -72.7000   -75.0000   -77.3000   -78.1000   -77.3000   -77.3000   -76.6000   -78.9000   -78.1000   -78.9000   -78.1000   -76.6000   -77.3000   -76.6000   -76.6000   -78.1000   -78.9000   -76.6000   -78.1000   -78.1000   -77.3000   -76.6000   -78.9000   -78.9000   -78.1000   -78.1000   -77.3000   -77.3000   -75.0000   -76.6000   -75.0000   -75.0000   -78.1000   -76.6000   -75.8000   -76.6000   -78.1000   -78.1000   -77.3000   -76.6000   -75.8000   -75.8000   -77.3000   -78.9000   -78.1000   -76.6000   -76.6000   -74.2000   -77.3000   -79.7000   -78.9000   -77.3000   -77.3000   -78.9000   -78.9000   -77.3000   -78.1000   -79.7000   -78.9000   -78.1000   -78.9000   -80.5000   -80.5000   -81.3000   -78.9000   -78.1000   -79.7000   -78.9000   -78.1000   -78.1000   -77.3000   -78.9000   -76.6000   -76.6000   -79.7000   -77.3000   -75.0000   -78.9000   -78.1000   -78.1000   -78.1000   -78.1000   -78.9000   -79.7000   -78.1000   -77.3000   -76.6000   -76.6000   -77.3000   -79.7000   -78.1000   -79.7000   -79.7000   -79.7000   -80.5000   -76.6000   -77.3000   -77.3000   -78.1000   -78.1000   -79.7000   -77.3000   -78.9000   -78.9000   -78.1000   -77.3000   -76.6000   -77.3000   -77.3000   -77.3000   -78.1000   -78.1000   -78.1000   -76.6000   -76.6000   -77.3000   -78.1000   -77.3000   -77.3000   -76.6000   -77.3000   -78.9000   -77.3000   -75.0000   -77.3000   -78.9000   -77.3000   -76.6000   -77.3000   -74.2000   -74.2000   -75.8000   -75.0000   -75.8000   -77.3000   -75.8000   -75.8000   -75.8000   -73.4000   -75.8000   -76.6000   -75.8000   -77.3000   -76.6000   -74.2000   -76.6000   -75.8000   -75.8000   -75.0000   -75.8000   -76.6000   -76.6000   -76.6000   -75.8000   -77.3000   -78.1000   -78.1000   -78.9000   -78.1000   -77.3000   -78.1000   -74.2000   -73.4000   -76.6000   -75.8000   -76.6000   -77.3000   -76.6000   -75.8000   -78.1000   -78.1000   -75.0000   -75.0000   -77.3000   -77.3000   -77.3000   -76.6000   -75.8000   -77.3000   -76.6000   -78.1000   -76.6000   -75.8000   -77.3000   -76.6000   -75.0000   -74.2000   -76.6000   -81.3000   -78.1000   -78.1000   -75.8000   -74.2000   -75.0000   -77.3000   -78.1000   -77.3000   -76.6000   -78.1000   -76.6000   -75.0000   -75.8000   -75.8000   -75.8000   -72.7000   -71.1000   -72.7000   -75.0000   -73.4000   -73.4000   -70.3000   -73.4000   -73.4000   -71.9000   -72.7000   -72.7000   -72.7000   -70.3000   -72.7000   -74.2000   -74.2000   -75.0000   -74.2000   -75.0000   -71.1000   -71.9000   -69.5000   -72.7000   -73.4000   -75.0000   -76.6000   -71.9000   -72.7000   -75.0000   -73.4000   -72.7000   -74.2000   -75.8000   -76.6000   -75.8000   -75.8000   -76.6000   -77.3000   -76.6000   -78.1000   -78.9000   -78.1000   -77.3000   -75.8000   -76.6000   -77.3000   -75.8000   -76.6000   -76.6000   -77.3000   -77.3000   -75.0000   -75.8000   -75.0000   -75.8000   -75.8000   -74.2000   -74.2000   -79.7000   -78.1000   -78.1000   -78.1000   -77.3000   -77.3000   -77.3000   -76.6000   -78.1000   -78.9000   -78.1000   -78.1000   -76.6000   -75.0000   -75.0000   -78.1000   -77.3000   -77.3000   -76.6000   -76.6000   -75.0000   -76.6000   -77.3000   -75.8000   -76.6000   -75.8000   -76.6000   -76.6000   -77.3000   -77.3000   -74.2000   -73.4000   -74.2000   -72.7000   -73.4000   -76.6000   -78.9000   -78.9000   -78.1000   -76.6000   -74.2000   -76.6000   -76.6000   -75.8000   -75.0000   -71.9000   -75.0000   -75.8000   -75.8000   -75.0000   -75.8000   -74.2000   -73.4000   -71.9000   -73.4000   -74.2000   -75.0000   -75.0000   -74.2000   -75.0000   -71.9000   -72.7000   -74.2000   -75.0000   -71.1000   -69.5000   -70.3000   -73.4000   -71.9000   -72.7000   -71.1000   -72.7000   -73.4000   -73.4000   -74.2000   -75.0000   -73.4000   -72.7000   -71.1000   -71.1000   -70.3000   -70.3000   -71.9000   -73.4000   -71.1000   -72.7000   -71.1000   -71.1000   -71.9000   -69.5000   -69.5000   -69.5000   -69.5000   -68.8000   -67.2000   -69.5000   -74.2000   -75.0000   -71.1000   -72.7000   -72.7000   -71.9000   -75.0000   -71.9000   -71.1000   -72.7000   -71.1000   -73.4000   -71.9000   -71.9000   -71.9000   -71.1000   -71.1000   -70.3000   -71.1000   -73.4000   -73.4000   -70.3000   -70.3000   -71.9000   -70.3000   -68.8000   -70.3000   -72.7000   -72.7000   -69.5000   -68.8000   -68.0000   -68.8000   -71.1000   -70.3000   -68.8000   -71.1000   -69.5000   -69.5000   -71.1000   -69.5000   -67.2000   -69.5000   -68.0000   -68.8000   -69.5000   -69.5000   -69.5000   -70.3000   -70.3000   -71.1000   -71.1000   -71.1000   -73.4000   -72.7000   -69.5000   -69.5000   -71.1000   -68.8000   -70.3000   -71.1000   -70.3000   -68.8000   -69.5000   -71.1000   -71.1000   -70.3000   -72.7000   -70.3000   -71.9000   -72.7000   -69.5000   -68.0000   -69.5000   -71.9000   -71.9000   -71.1000   -68.8000   -70.3000   -73.4000   -70.3000   -71.1000   -71.1000   -70.3000   -68.0000   -70.3000   -75.0000   -71.9000   -70.3000   -71.9000   -72.7000   -72.7000   -73.4000   -75.0000   -74.2000   -72.7000   -71.9000   -75.8000   -75.0000   -73.4000   -73.4000   -72.7000   -77.3000   -77.3000   -75.8000   -74.2000   -74.2000   -73.4000   -75.8000   -76.6000   -72.7000   -74.2000   -75.8000   -76.6000   -75.0000   -75.0000   -76.6000   -75.0000   -75.8000   -76.6000   -78.1000   -77.3000   -75.0000   -74.2000   -77.3000   -74.2000   -75.8000   -74.2000   -71.9000   -74.2000   -76.6000   -79.7000   -81.3000   -78.9000   -77.3000   -77.3000   -77.3000   -77.3000   -78.9000   -78.1000   -76.6000   -75.8000   -77.3000   -78.1000   -76.6000   -76.6000   -78.1000   -78.9000   -75.8000   -75.8000   -78.9000   -78.9000   -78.9000   -79.7000   -79.7000   -77.3000   -78.1000   -76.6000   -76.6000   -75.8000   -75.0000   -72.7000   -74.2000   -76.6000   -77.3000   -75.0000   -75.0000   -75.0000   -75.8000   -77.3000   -75.8000   -76.6000   -74.2000   -74.2000   -77.3000   -77.3000   -75.0000   -74.2000   -75.8000   -78.1000   -75.8000   -72.7000   -75.0000   -76.6000   -77.3000   -75.0000   -74.2000   -74.2000   -71.9000   -74.2000   -76.6000   -77.3000   -75.0000   -76.6000   -75.0000   -72.7000   -73.4000   -72.7000   -71.1000   -74.2000   -71.9000   -69.5000   -68.8000   -71.9000   -73.4000   -75.8000   -75.0000   -75.0000   -74.2000   -75.8000   -75.0000   -72.7000   -72.7000   -74.2000   -75.0000   -75.8000   -76.6000   -72.7000   -73.4000   -75.8000   -74.2000   -74.2000   -71.9000   -72.7000   -75.0000   -74.2000   -74.2000   -75.0000   -77.3000   -76.6000   -76.6000   -75.8000   -78.1000   -77.3000   -78.1000   -77.3000   -76.6000   -75.0000   -76.6000   -77.3000   -78.1000   -78.1000   -77.3000   -76.6000   -78.1000   -78.9000   -77.3000   -76.6000   -78.9000   -79.7000   -73.4000   -75.0000   -76.6000   -77.3000   -77.3000   -72.7000   -74.2000   -75.0000   -76.6000   -75.8000   -73.4000   -73.4000   -72.7000   -74.2000   -71.9000   -69.5000   -69.5000   -71.9000   -74.2000   -71.9000   -71.9000   -73.4000   -74.2000   -72.7000   -73.4000   -74.2000   -75.0000   -75.0000   -74.2000   -71.1000   -72.7000   -73.4000   -71.9000   -73.4000   -74.2000   -75.8000   -75.8000   -71.1000   -71.1000   -71.9000   -72.7000   -74.2000   -75.8000   -75.0000   -74.2000   -71.9000   -73.4000   -71.9000   -73.4000   -72.7000   -73.4000   -74.2000   -74.2000   -75.0000   -76.6000   -78.9000   -77.3000   -75.0000   -74.2000   -72.7000   -75.8000   -76.6000   -76.6000   -76.6000   -75.0000   -73.4000   -77.3000   -77.3000   -76.6000   -78.9000   -79.7000   -79.7000   -78.1000   -76.6000   -75.8000   -77.3000   -81.3000   -78.1000   -78.1000   -80.5000   -79.7000   -78.9000   -79.7000   -79.7000   -78.9000   -78.9000   -78.9000   -77.3000   -78.9000   -79.7000   -78.9000   -79.7000   -77.3000   -78.1000   -79.7000   -78.9000   -78.9000   -76.6000   -77.3000   -79.7000   -81.3000   -82.8000   -78.9000   -81.3000   -80.5000   -79.7000   -79.7000   -78.9000   -78.1000   -78.1000   -78.9000   -79.7000   -81.3000   -80.5000   -81.3000   -80.5000   -81.3000   -82.0000   -80.5000   -79.7000   -81.3000   -82.0000   -80.5000   -78.1000   -78.9000   -78.1000   -78.9000   -78.9000   -78.1000   -79.7000   -80.5000   -80.5000   -78.1000   -78.9000   -79.7000   -80.5000   -81.3000   -79.7000   -82.0000   -82.8000   -79.7000   -79.7000   -82.0000   -82.8000   -81.3000   -79.7000   -78.9000   -79.7000   -80.5000   -78.9000   -78.9000   -78.9000   -78.9000   -80.5000   -78.9000   -78.1000   -78.9000   -78.9000   -79.7000   -78.9000   -77.3000   -81.3000   -78.9000   -77.3000   -77.3000   -78.9000   -78.1000   -78.1000   -79.7000   -80.5000   -79.7000   -78.9000   -80.5000   -81.3000   -82.8000   -81.3000   -80.5000   -81.3000   -80.5000   -79.7000   -82.0000   -81.3000   -77.3000   -78.1000   -78.9000   -78.9000   -80.5000   -78.9000   -76.6000   -78.1000   -77.3000   -77.3000   -75.0000   -76.6000   -77.3000   -75.8000   -74.2000   -73.4000   -74.2000   -73.4000   -71.9000   -73.4000   -77.3000   -76.6000   -75.0000   -74.2000   -75.0000   -75.0000   -75.0000   -76.6000   -72.7000   -72.7000   -71.9000   -74.2000   -75.0000   -71.9000   -72.7000   -71.9000   -72.7000   -73.4000   -73.4000   -73.4000   -72.7000   -72.7000   -71.1000   -71.9000   -75.8000   -77.3000   -75.0000   -75.0000   -75.0000   -78.1000   -77.3000   -78.9000   -78.9000   -78.9000   -78.1000   -77.3000   -76.6000   -79.7000   -78.1000   -78.9000   -78.9000   -82.0000   -84.4000   -88.3000   -89.8000   -93.8000   -92.2000   -93.8000   -98.4000   -95.3000   -94.5000   -96.1000   -96.1000   -97.7000  -100.0000  -100.0000   -99.2000   -97.7000   -93.8000   -97.7000   -99.2000   -96.9000   -97.7000  -100.0000  -100.0000  -100.0000   -98.4000   -96.9000   -96.9000   -95.3000   -96.1000   -97.7000   -96.9000   -93.8000   -95.3000   -93.8000   -92.2000   -89.1000   -89.8000   -92.2000   -88.3000   -85.9000   -86.7000   -89.8000   -87.5000   -85.9000   -86.7000   -82.0000   -79.7000   -82.0000   -81.3000   -83.6000   -83.6000   -80.5000   -80.5000   -79.7000   -79.7000   -78.9000   -79.7000   -78.9000   -77.3000   -76.6000   -78.1000   -77.3000   -76.6000   -76.6000   -78.1000   -78.1000   -75.8000   -75.0000   -75.0000   -77.3000   -76.6000   -74.2000   -75.0000   -73.4000   -73.4000   -72.7000   -68.8000   -70.3000   -70.3000   -72.7000   -71.9000   -71.1000   -70.3000   -72.7000   -68.8000   -69.5000   -68.8000   -69.5000   -71.1000   -68.0000   -67.2000   -69.5000   -71.9000   -69.5000   -69.5000   -72.7000   -70.3000   -71.1000   -71.9000   -72.7000   -72.7000   -71.1000   -72.7000   -71.1000   -71.9000   -71.9000   -71.9000   -70.3000   -69.5000   -70.3000   -71.9000   -72.7000   -70.3000   -70.3000   -71.1000   -73.4000   -74.2000   -75.0000   -76.6000   -75.0000   -74.2000   -74.2000   -77.3000   -78.1000   -78.1000   -78.9000   -80.5000   -81.3000   -81.3000   -84.4000   -82.8000   -81.3000   -80.5000   -81.3000   -80.5000   -79.7000   -80.5000   -82.8000   -82.8000   -81.3000   -80.5000   -80.5000   -81.3000   -81.3000   -79.7000   -80.5000   -81.3000   -79.7000   -79.7000   -79.7000   -81.3000   -79.7000   -80.5000   -80.5000   -77.3000   -76.6000   -78.1000   -79.7000   -82.0000   -79.7000   -78.9000   -79.7000   -78.1000   -80.5000   -80.5000   -78.1000   -79.7000   -80.5000   -80.5000   -77.3000   -78.1000   -78.9000   -77.3000   -78.9000   -75.8000   -74.2000   -78.9000   -76.6000   -74.2000   -77.3000   -77.3000   -78.1000   -75.8000   -74.2000   -75.8000   -76.6000   -75.8000   -76.6000   -76.6000   -76.6000   -74.2000   -74.2000   -74.2000   -75.0000   -75.0000   -76.6000   -76.6000   -76.6000   -74.2000   -75.0000   -74.2000   -73.4000   -73.4000   -77.3000   -77.3000   -75.0000   -76.6000   -77.3000   -75.8000   -75.8000   -72.7000   -74.2000   -75.0000   -75.8000   -76.6000   -76.6000   -75.0000   -75.0000   -75.8000   -75.0000   -73.4000   -77.3000   -76.6000   -74.2000   -75.0000   -76.6000   -78.1000   -76.6000   -75.8000   -75.8000   -75.8000   -75.0000   -77.3000   -75.0000   -74.2000   -75.0000   -75.8000   -77.3000   -78.1000   -75.8000   -71.9000   -74.2000   -76.6000   -75.0000   -77.3000   -78.9000   -78.1000   -76.6000   -79.7000   -78.9000   -78.9000   -78.9000   -76.6000   -76.6000   -76.6000   -75.8000   -76.6000   -78.1000   -78.1000   -78.1000   -76.6000   -75.0000   -75.8000   -74.2000   -76.6000   -75.0000   -75.8000   -75.8000   -73.4000   -74.2000   -72.7000   -75.0000   -76.6000   -76.6000   -78.1000   -78.9000   -78.1000   -76.6000   -78.9000   -78.1000   -76.6000   -75.8000   -78.1000   -78.1000   -78.1000   -74.2000   -73.4000   -75.8000   -78.1000   -77.3000   -77.3000   -77.3000   -75.8000   -74.2000   -77.3000   -75.0000   -75.8000   -75.8000   -75.0000   -75.8000   -75.8000   -76.6000   -75.0000   -73.4000   -75.8000   -78.1000   -76.6000   -74.2000   -73.4000   -74.2000   -72.7000   -71.9000   -74.2000   -74.2000   -74.2000   -73.4000   -73.4000   -74.2000   -74.2000   -71.9000   -71.9000   -74.2000   -74.2000   -75.8000   -75.8000   -71.9000   -71.1000   -71.9000   -75.0000   -74.2000   -71.9000   -71.9000   -72.7000   -71.9000   -72.7000   -69.5000   -70.3000   -74.2000   -75.8000   -74.2000   -72.7000   -71.9000   -71.9000   -74.2000   -70.3000   -69.5000   -71.1000   -75.8000   -75.8000   -75.0000   -72.7000   -74.2000   -76.6000   -78.1000   -75.8000   -75.8000   -75.8000   -76.6000   -75.8000   -75.8000   -78.1000   -78.1000   -76.6000   -74.2000   -74.2000   -73.4000   -71.9000   -75.0000   -75.8000   -77.3000   -75.8000   -75.0000   -78.9000   -77.3000   -77.3000   -77.3000   -78.1000   -78.9000   -78.1000   -75.8000   -76.6000   -78.1000   -79.7000   -78.1000   -78.9000   -77.3000   -78.1000   -78.1000   -79.7000   -77.3000   -79.7000   -78.9000   -78.1000   -78.9000   -78.1000   -77.3000   -76.6000   -78.1000   -77.3000   -77.3000   -77.3000   -76.6000   -75.8000   -76.6000   -77.3000   -77.3000   -78.1000   -76.6000   -78.1000   -78.9000   -78.9000   -78.1000   -78.1000   -79.7000   -79.7000   -79.7000   -77.3000   -77.3000   -77.3000   -78.1000   -78.9000   -78.9000   -78.9000   -78.1000   -78.1000   -75.8000   -77.3000   -78.9000   -77.3000   -78.9000   -79.7000   -80.5000   -79.7000   -77.3000   -79.7000   -81.3000   -80.5000   -79.7000   -78.9000   -80.5000   -82.0000   -82.0000   -81.3000   -81.3000   -82.0000   -81.3000   -81.3000   -81.3000   -81.3000   -78.1000   -78.9000   -80.5000   -81.3000   -79.7000   -82.0000   -84.4000   -84.4000   -82.0000   -82.8000   -83.6000   -84.4000   -84.4000   -82.0000   -82.8000   -84.4000   -88.3000   -85.9000   -82.8000   -83.6000   -85.2000   -85.2000   -82.8000   -83.6000   -85.9000   -85.9000   -85.9000   -86.7000   -84.4000   -82.8000   -82.0000   -84.4000   -82.8000   -82.0000   -82.0000   -83.6000   -83.6000   -84.4000   -86.7000   -85.9000   -85.2000   -85.2000   -84.4000   -85.2000   -84.4000   -83.6000   -83.6000   -85.9000   -87.5000   -83.6000   -83.6000   -82.8000   -82.0000   -82.8000   -82.8000   -82.8000   -82.0000   -82.0000   -81.3000   -79.7000   -80.5000   -80.5000   -79.7000   -81.3000   -82.0000   -81.3000   -80.5000   -79.7000   -82.8000   -82.8000   -79.7000   -81.3000   -80.5000   -81.3000   -82.8000   -80.5000   -81.3000   -78.9000   -78.9000   -79.7000   -78.1000   -77.3000   -73.4000   -71.9000   -72.7000   -76.6000   -77.3000   -75.0000   -75.0000   -71.1000   -71.1000   -75.0000   -74.2000   -74.2000   -72.7000   -74.2000   -72.7000   -72.7000   -71.9000   -71.9000   -71.9000   -71.9000   -71.1000   -70.3000   -73.4000   -74.2000   -74.2000   -71.1000   -71.1000   -69.5000   -72.7000   -71.9000   -74.2000   -71.9000   -72.7000   -72.7000   -71.9000   -71.9000   -73.4000   -72.7000   -70.3000   -73.4000   -72.7000   -73.4000   -74.2000   -75.0000   -75.8000   -74.2000   -75.0000   -74.2000   -72.7000   -75.0000   -76.6000   -76.6000   -75.8000   -76.6000   -78.1000   -75.8000   -77.3000   -73.4000   -75.0000   -73.4000   -75.8000   -77.3000   -77.3000   -76.6000   -78.9000   -78.9000   -75.0000   -76.6000   -76.6000   -75.8000   -75.8000   -78.1000   -79.7000   -77.3000   -78.1000   -76.6000   -78.1000   -80.5000   -76.6000   -78.1000   -77.3000   -77.3000   -78.9000   -78.9000   -80.5000   -79.7000   -78.9000   -77.3000   -79.7000   -78.1000   -77.3000   -78.1000   -77.3000   -78.9000   -78.9000   -80.5000   -78.9000   -75.8000   -76.6000   -78.1000   -78.1000   -77.3000   -78.9000   -78.9000   -78.9000   -75.0000   -73.4000   -74.2000   -78.1000   -75.8000   -76.6000   -78.1000   -75.8000   -77.3000   -77.3000   -77.3000   -77.3000   -75.0000   -75.0000   -75.0000   -75.0000   -75.8000   -77.3000   -78.1000   -76.6000   -76.6000   -77.3000   -78.1000   -76.6000   -76.6000   -76.6000   -75.0000   -75.8000   -75.8000   -75.8000   -78.9000   -79.7000   -77.3000   -77.3000   -76.6000   -76.6000   -75.0000   -78.9000   -77.3000   -77.3000   -78.9000   -78.9000   -77.3000   -78.1000   -77.3000   -76.6000   -77.3000   -75.8000   -76.6000   -75.0000   -76.6000   -76.6000   -77.3000   -76.6000   -77.3000   -78.1000   -78.9000   -77.3000   -77.3000   -77.3000   -78.9000   -78.1000   -78.1000   -77.3000   -77.3000   -78.9000   -79.7000   -78.9000   -78.1000   -77.3000   -77.3000   -78.1000   -78.9000   -80.5000   -81.3000   -80.5000   -82.0000   -79.7000   -78.9000   -80.5000   -82.8000   -80.5000   -79.7000   -80.5000   -82.0000   -80.5000   -81.3000   -82.0000   -79.7000   -79.7000   -80.5000   -79.7000   -78.9000   -79.7000   -80.5000   -81.3000   -79.7000   -77.3000   -75.8000   -79.7000   -83.6000   -82.8000   -84.4000   -85.2000   -87.5000   -86.7000   -85.9000   -85.2000   -81.3000   -81.3000   -81.3000   -82.0000   -80.5000   -78.9000   -77.3000   -75.0000   -73.4000   -71.1000   -73.4000   -77.3000   -77.3000   -79.7000   -82.8000   -83.6000   -85.2000   -84.4000   -82.8000   -86.7000   -85.2000   -86.7000   -85.9000   -88.3000   -86.7000   -85.9000   -86.7000   -89.1000   -87.5000   -85.9000   -85.9000   -84.4000   -84.4000   -84.4000   -83.6000   -85.2000   -85.9000   -83.6000   -82.0000   -78.1000   -77.3000   -78.1000   -77.3000   -77.3000   -76.6000   -75.0000   -75.8000   -77.3000   -78.1000   -75.0000   -74.2000   -74.2000   -74.2000   -75.8000   -75.8000   -75.0000   -75.8000   -76.6000   -72.7000   -75.0000   -74.2000   -73.4000   -75.0000   -75.8000   -72.7000   -71.9000   -71.9000   -71.9000   -71.9000   -71.1000   -70.3000   -71.1000   -70.3000   -69.5000   -69.5000   -66.4000   -68.8000   -70.3000   -70.3000   -69.5000   -69.5000   -71.1000   -70.3000   -67.2000   -64.8000   -67.2000   -68.8000   -68.8000   -68.0000   -69.5000   -68.8000   -71.9000   -71.9000   -68.8000   -68.8000   -70.3000   -68.0000   -66.4000   -68.8000   -68.8000   -67.2000   -67.2000   -67.2000   -68.0000   -68.8000   -69.5000   -66.4000   -67.2000   -64.8000   -68.0000   -66.4000   -68.8000   -68.0000   -69.5000   -68.0000   -64.8000   -64.8000   -66.4000   -68.0000   -68.0000   -65.6000   -65.6000   -64.8000   -64.8000   -67.2000   -66.4000   -64.1000   -64.1000   -65.6000   -65.6000   -63.3000   -63.3000   -63.3000   -62.5000   -63.3000   -64.8000   -66.4000   -65.6000   -65.6000   -64.8000   -65.6000   -67.2000   -68.0000   -68.8000   -68.8000   -68.0000   -67.2000   -66.4000   -68.0000   -67.2000   -65.6000   -65.6000   -67.2000   -67.2000   -65.6000   -66.4000   -68.0000   -68.0000   -67.2000   -67.2000   -68.0000   -68.8000   -65.6000   -64.8000   -68.0000   -71.1000   -68.8000   -68.0000   -67.2000   -68.8000   -64.8000   -66.4000   -71.9000   -68.8000   -68.0000   -69.5000   -70.3000   -72.7000   -71.1000   -72.7000   -71.9000   -71.9000   -74.2000   -75.0000   -76.6000   -73.4000   -74.2000   -75.0000   -78.1000   -77.3000   -77.3000   -79.7000   -79.7000   -78.9000   -78.1000   -81.3000   -80.5000   -79.7000   -79.7000   -82.8000   -82.8000   -79.7000   -79.7000   -80.5000   -82.8000   -85.9000   -87.5000   -85.2000   -85.9000   -84.4000   -82.8000   -82.8000   -80.5000   -78.9000   -81.3000   -82.8000   -81.3000   -80.5000   -81.3000   -82.0000   -81.3000   -79.7000   -79.7000   -78.1000   -78.1000   -78.9000   -79.7000   -79.7000   -78.9000   -80.5000   -79.7000   -76.6000   -79.7000   -80.5000   -78.9000   -79.7000   -81.3000   -79.7000   -79.7000   -78.9000   -78.9000   -78.1000   -75.8000   -75.8000   -79.7000   -78.1000   -77.3000   -78.1000   -78.9000   -79.7000   -78.9000   -78.1000   -78.9000   -78.1000   -77.3000   -76.6000   -78.1000   -78.9000   -75.8000   -75.8000   -76.6000   -77.3000   -77.3000   -75.0000   -75.0000   -77.3000   -76.6000   -74.2000   -76.6000   -78.1000   -78.9000   -77.3000   -78.9000   -78.1000   -76.6000   -77.3000   -79.7000   -76.6000   -75.8000   -74.2000   -76.6000   -77.3000   -75.0000   -74.2000   -74.2000   -73.4000   -76.6000   -75.8000   -75.0000   -75.0000   -73.4000   -76.6000   -74.2000   -71.9000   -71.1000   -75.8000   -77.3000   -75.8000   -71.9000   -72.7000   -75.0000   -75.8000   -74.2000   -72.7000   -73.4000   -72.7000   -73.4000   -76.6000   -75.0000   -75.0000   -73.4000   -71.9000   -70.3000   -70.3000   -67.2000   -67.2000   -70.3000   -68.0000   -66.4000   -69.5000   -68.0000   -68.8000   -68.0000   -68.0000   -69.5000   -68.8000   -67.2000   -68.0000   -68.8000   -68.8000   -68.0000   -68.8000   -69.5000   -68.8000   -71.1000   -71.9000   -71.1000   -73.4000   -74.2000   -75.8000   -75.8000   -76.6000   -77.3000   -78.1000   -79.7000   -77.3000   -76.6000   -78.1000   -80.5000   -81.3000   -79.7000   -82.0000   -82.0000   -82.0000   -83.6000   -83.6000   -82.8000   -83.6000   -82.8000   -83.6000   -82.8000   -82.0000   -82.0000   -85.2000   -85.2000   -85.9000   -87.5000   -85.2000   -87.5000   -87.5000   -86.7000   -85.9000   -85.9000   -85.9000   -85.2000   -83.6000   -85.2000   -85.2000   -85.2000   -82.0000   -80.5000   -81.3000   -86.7000   -86.7000   -85.2000   -82.0000   -85.9000   -85.2000   -85.9000   -85.2000   -86.7000   -89.1000   -84.4000   -87.5000   -88.3000   -88.3000   -86.7000   -87.5000   -88.3000   -86.7000   -84.4000   -83.6000   -84.4000   -86.7000   -86.7000   -82.8000   -82.0000   -83.6000   -85.9000   -85.2000   -85.2000   -84.4000   -84.4000   -82.8000   -82.8000   -83.6000   -85.2000   -88.3000   -87.5000   -82.8000   -81.3000   -82.0000   -82.0000   -82.0000   -85.2000   -85.2000   -85.2000   -86.7000   -85.9000   -85.2000   -84.4000   -80.5000   -82.8000   -84.4000   -81.3000   -82.8000   -84.4000   -84.4000   -81.3000   -85.2000   -83.6000   -85.2000   -84.4000   -84.4000   -83.6000   -83.6000   -82.8000   -84.4000   -86.7000   -84.4000   -83.6000   -85.9000   -84.4000   -87.5000   -87.5000   -89.1000   -87.5000   -84.4000   -85.2000   -86.7000   -86.7000   -89.1000   -85.9000   -85.2000   -85.9000   -85.9000   -85.9000   -87.5000   -85.2000   -84.4000   -85.9000   -85.2000   -84.4000   -85.2000   -82.8000   -82.0000   -83.6000   -86.7000   -86.7000   -85.9000   -84.4000   -82.8000   -82.8000   -86.7000   -85.2000   -84.4000   -85.9000   -85.9000   -83.6000   -85.2000   -83.6000   -83.6000   -83.6000   -85.2000   -86.7000   -85.9000   -88.3000   -87.5000   -87.5000   -85.9000   -87.5000   -86.7000   -84.4000   -82.0000   -83.6000   -85.2000   -85.2000   -84.4000   -82.8000   -85.2000   -85.2000   -84.4000   -83.6000   -82.0000   -82.8000   -82.0000   -84.4000   -84.4000   -82.0000   -82.8000   -85.2000   -83.6000   -82.8000   -81.3000   -80.5000   -80.5000   -79.7000   -81.3000   -81.3000   -80.5000   -78.9000   -80.5000   -81.3000   -80.5000   -80.5000   -81.3000   -81.3000   -82.0000   -83.6000   -82.0000   -83.6000   -85.9000   -84.4000   -83.6000   -84.4000   -87.5000   -83.6000   -83.6000   -83.6000   -82.8000   -82.8000   -84.4000   -85.2000   -85.2000   -85.9000   -84.4000   -82.8000   -82.0000   -80.5000   -82.0000   -82.0000   -82.8000   -82.0000   -81.3000   -81.3000   -82.8000   -82.0000   -80.5000   -82.8000   -82.8000   -82.0000   -82.0000   -80.5000   -82.0000   -80.5000   -78.9000   -78.9000   -79.7000   -77.3000   -77.3000   -78.1000   -77.3000   -78.1000   -78.1000   -77.3000   -78.1000   -78.1000   -77.3000   -78.1000   -77.3000   -75.8000   -74.2000   -75.8000   -77.3000   -75.8000   -75.0000   -76.6000   -75.8000   -75.0000   -75.8000   -75.8000   -71.9000   -71.9000   -75.8000   -75.8000   -75.0000   -75.8000   -75.0000   -74.2000   -75.8000   -76.6000   -74.2000   -74.2000   -75.0000   -77.3000   -77.3000   -76.6000   -74.2000   -73.4000   -75.8000   -75.0000   -71.9000   -75.0000   -76.6000   -77.3000   -78.9000   -78.1000   -75.8000   -76.6000   -75.8000   -74.2000   -73.4000   -76.6000   -75.0000   -75.0000   -76.6000   -76.6000   -75.8000   -78.9000   -76.6000   -75.8000   -75.8000   -74.2000   -75.8000   -77.3000   -75.0000   -74.2000   -76.6000   -76.6000   -75.8000   -76.6000   -75.0000   -75.0000   -75.0000   -75.8000   -76.6000   -75.0000   -77.3000   -76.6000   -75.0000   -74.2000   -74.2000   -75.8000   -75.0000   -74.2000   -71.9000   -74.2000   -75.8000   -75.0000   -75.8000   -75.0000   -75.8000   -77.3000   -75.8000   -75.0000   -72.7000   -76.6000   -75.0000   -74.2000   -78.1000   -76.6000   -75.0000   -75.8000   -76.6000   -76.6000   -76.6000   -74.2000   -73.4000   -73.4000   -73.4000   -76.6000   -73.4000   -75.8000   -75.8000   -71.1000   -72.7000   -72.7000   -74.2000   -73.4000   -75.0000   -74.2000   -72.7000   -75.0000   -73.4000   -73.4000   -72.7000   -71.9000   -73.4000   -76.6000   -76.6000   -74.2000   -74.2000   -75.0000   -73.4000   -73.4000   -76.6000   -75.8000   -74.2000   -75.0000   -76.6000   -74.2000   -71.1000   -72.7000   -75.0000   -73.4000   -75.0000   -75.8000   -74.2000   -73.4000   -75.0000   -74.2000   -69.5000   -69.5000   -71.9000   -71.9000   -72.7000   -71.9000   -71.9000   -71.1000   -68.0000   -68.8000   -68.0000   -68.0000   -68.8000   -68.8000   -68.0000   -70.3000   -71.1000   -70.3000   -70.3000   -69.5000   -68.0000   -68.8000   -72.7000   -71.9000   -71.1000   -72.7000   -73.4000   -74.2000   -73.4000   -71.9000   -75.0000   -75.8000   -72.7000   -73.4000   -75.0000   -75.0000   -74.2000   -73.4000   -71.9000   -75.0000   -75.0000   -75.0000   -75.8000   -75.8000   -73.4000   -72.7000   -75.8000   -77.3000   -76.6000   -77.3000   -75.8000   -75.0000   -73.4000   -75.8000   -75.8000   -76.6000   -78.1000   -75.8000   -75.0000   -75.8000   -77.3000   -76.6000   -77.3000   -75.8000   -75.0000   -75.0000   -75.8000   -75.0000   -75.0000   -74.2000   -74.2000   -77.3000   -76.6000   -76.6000   -75.0000   -75.0000   -74.2000   -72.7000   -75.0000   -74.2000   -76.6000   -76.6000   -76.6000   -75.0000   -71.9000   -71.9000   -71.9000   -73.4000   -72.7000   -73.4000   -72.7000   -73.4000   -73.4000   -71.9000   -70.3000   -72.7000   -71.1000   -71.9000   -69.5000   -71.9000   -72.7000   -73.4000   -70.3000   -71.1000   -71.9000   -72.7000   -71.9000   -71.1000   -71.1000   -71.1000   -71.9000   -71.1000   -69.5000   -69.5000   -71.1000   -73.4000   -73.4000   -71.9000   -71.9000   -71.1000   -71.1000   -71.1000   -70.3000   -68.0000   -69.5000   -72.7000   -74.2000   -71.1000   -71.1000   -69.5000   -68.8000   -68.0000   -69.5000   -72.7000   -71.9000   -71.1000   -72.7000   -74.2000   -71.9000   -70.3000   -72.7000   -71.1000   -69.5000   -70.3000   -74.2000   -72.7000   -74.2000   -74.2000   -75.8000   -75.8000   -73.4000   -72.7000   -75.8000   -75.0000   -73.4000   -75.0000   -75.8000   -72.7000   -71.9000   -74.2000   -72.7000   -75.0000   -75.8000   -74.2000   -73.4000   -73.4000   -76.6000   -78.1000   -77.3000   -75.8000   -75.0000   -73.4000   -75.8000   -77.3000   -77.3000   -78.1000   -77.3000   -75.0000   -75.0000   -75.8000   -75.8000   -76.6000   -77.3000   -78.1000   -78.9000   -78.1000   -78.9000   -78.1000   -78.1000   -79.7000   -80.5000   -78.9000   -82.8000   -80.5000   -80.5000   -78.9000   -82.0000   -82.8000   -81.3000   -83.6000   -82.0000   -81.3000   -80.5000   -80.5000   -80.5000   -81.3000   -82.8000   -80.5000   -79.7000   -80.5000   -83.6000   -82.0000   -79.7000   -80.5000   -84.4000   -82.8000   -82.8000   -85.2000   -85.2000   -85.9000   -83.6000   -82.8000   -81.3000   -82.0000   -82.0000   -82.0000   -81.3000   -81.3000   -81.3000   -81.3000   -79.7000   -79.7000   -80.5000   -80.5000   -79.7000   -79.7000   -82.0000   -82.8000   -81.3000   -79.7000   -78.1000   -78.1000   -79.7000   -78.9000   -76.6000   -78.1000   -80.5000   -79.7000   -78.9000   -78.9000   -77.3000   -77.3000   -80.5000   -78.9000   -78.9000   -78.9000   -78.9000   -78.1000   -76.6000   -77.3000   -77.3000   -75.8000   -78.1000   -78.1000   -75.0000   -72.7000   -75.0000   -77.3000   -75.8000   -75.8000   -75.8000   -76.6000   -75.8000   -73.4000   -75.8000   -74.2000   -73.4000   -72.7000   -75.0000   -76.6000   -76.6000   -75.8000   -76.6000   -76.6000   -78.1000   -76.6000   -77.3000   -79.7000   -77.3000   -77.3000   -78.1000   -79.7000   -79.7000   -80.5000   -79.7000   -79.7000   -81.3000   -81.3000   -79.7000   -78.9000   -78.1000   -80.5000   -81.3000   -83.6000   -83.6000   -82.0000   -81.3000   -81.3000   -80.5000   -79.7000   -79.7000   -81.3000   -78.9000   -78.1000   -80.5000   -81.3000   -82.0000   -80.5000   -80.5000   -79.7000   -80.5000   -81.3000   -81.3000   -82.0000   -80.5000   -79.7000   -82.0000   -81.3000   -80.5000   -78.1000   -80.5000   -82.8000   -82.0000   -81.3000   -80.5000   -77.3000   -76.6000   -75.8000   -76.6000   -78.1000   -77.3000   -78.1000   -75.8000   -76.6000   -76.6000   -78.1000   -75.0000   -74.2000   -75.0000   -76.6000   -75.0000   -72.7000   -74.2000   -75.8000   -73.4000   -74.2000   -73.4000   -73.4000   -74.2000   -75.8000   -75.0000   -72.7000   -71.9000   -71.9000   -72.7000   -71.1000   -71.9000   -74.2000   -73.4000   -72.7000   -74.2000   -74.2000   -73.4000   -73.4000   -75.0000   -72.7000   -71.1000   -72.7000   -69.5000   -73.4000   -73.4000   -72.7000   -72.7000   -73.4000   -73.4000   -72.7000   -75.0000   -75.0000   -74.2000   -72.7000   -72.7000   -72.7000   -73.4000   -71.9000   -73.4000   -71.9000   -71.1000   -69.5000   -70.3000   -72.7000   -74.2000   -74.2000   -72.7000   -72.7000   -71.9000   -70.3000   -73.4000   -72.7000   -72.7000   -70.3000   -70.3000   -70.3000   -69.5000   -68.8000   -68.0000   -68.8000   -71.1000   -70.3000   -72.7000   -71.1000   -71.9000   -73.4000   -72.7000   -71.9000   -70.3000   -69.5000   -71.1000   -71.1000   -69.5000   -70.3000   -71.1000   -71.1000   -69.5000   -70.3000   -74.2000   -70.3000   -71.9000   -75.8000   -71.9000   -72.7000   -75.0000   -74.2000   -71.1000   -71.1000   -73.4000   -71.9000   -73.4000   -75.0000   -74.2000   -74.2000   -74.2000   -74.2000   -74.2000   -75.8000   -75.8000   -75.0000   -71.9000   -75.8000   -76.6000   -75.8000   -72.7000   -75.0000   -74.2000   -75.0000   -76.6000   -75.8000   -74.2000   -72.7000   -71.9000   -76.6000   -74.2000   -74.2000   -75.8000   -74.2000   -74.2000   -72.7000   -75.0000   -77.3000   -77.3000   -76.6000   -76.6000   -77.3000   -74.2000   -74.2000   -78.1000   -78.1000   -75.8000   -75.0000   -75.8000   -75.0000   -75.0000   -74.2000   -74.2000   -75.0000   -75.8000   -77.3000   -75.8000   -78.9000   -76.6000   -78.9000   -78.1000   -78.1000   -75.0000   -71.9000   -72.7000   -73.4000   -71.1000   -70.3000   -73.4000   -74.2000   -72.7000   -71.1000   -71.9000   -75.8000   -77.3000   -70.3000   -71.9000   -73.4000   -71.9000   -74.2000   -74.2000   -74.2000   -72.7000   -70.3000   -73.4000   -73.4000   -73.4000   -75.0000   -73.4000   -76.6000   -75.8000   -75.0000   -73.4000   -74.2000   -74.2000   -74.2000   -74.2000   -71.1000   -71.1000   -75.0000   -71.9000   -70.3000   -71.1000   -74.2000   -75.0000   -75.0000   -75.8000   -76.6000   -74.2000   -75.8000   -73.4000   -74.2000   -74.2000   -75.8000   -75.8000   -72.7000   -74.2000   -72.7000   -75.0000   -76.6000   -75.0000   -71.1000   -71.9000   -74.2000   -75.8000   -75.0000   -75.0000   -71.1000   -71.9000   -71.9000   -71.9000   -73.4000   -72.7000   -73.4000   -72.7000   -74.2000   -72.7000   -71.9000   -71.9000   -71.1000   -73.4000   -74.2000   -73.4000   -73.4000   -78.1000   -76.6000   -75.0000   -74.2000   -74.2000   -77.3000   -75.0000   -75.8000   -78.9000   -77.3000   -76.6000   -78.1000   -75.8000   -76.6000   -78.9000   -78.9000   -77.3000   -75.8000   -75.8000   -76.6000   -76.6000   -75.8000   -75.8000   -76.6000   -78.9000   -78.9000   -78.1000   -77.3000   -79.7000   -81.3000   -80.5000   -80.5000   -82.0000   -84.4000   -85.9000   -85.9000   -82.8000   -83.6000   -85.2000   -89.1000   -89.8000   -85.2000   -88.3000   -87.5000   -88.3000   -89.8000   -89.1000   -88.3000   -89.1000   -88.3000   -89.8000   -89.1000   -89.8000   -89.1000   -88.3000   -88.3000   -90.6000   -89.8000   -88.3000   -87.5000   -86.7000   -84.4000   -85.9000   -88.3000   -87.5000   -84.4000   -88.3000   -89.1000   -85.2000   -82.0000   -82.0000   -81.3000   -83.6000   -83.6000   -84.4000   -82.8000   -81.3000   -82.0000   -82.8000   -78.9000   -77.3000   -79.7000   -82.0000   -80.5000   -79.7000   -77.3000   -76.6000   -78.1000   -77.3000   -78.1000   -78.1000   -78.9000   -78.9000   -75.8000   -74.2000   -75.8000   -75.0000   -76.6000   -77.3000   -75.0000   -73.4000   -75.0000   -75.0000   -75.0000   -72.7000   -75.0000   -74.2000   -72.7000   -71.1000   -71.1000   -73.4000   -69.5000   -68.8000   -68.0000   -68.0000   -67.2000   -67.2000   -68.8000   -68.8000   -71.1000   -71.1000   -71.9000   -70.3000   -72.7000   -72.7000   -72.7000   -73.4000   -73.4000   -72.7000   -72.7000   -74.2000   -75.0000   -76.6000   -73.4000   -73.4000   -76.6000   -76.6000   -77.3000   -75.0000   -74.2000   -77.3000   -78.1000   -76.6000   -75.8000   -77.3000   -77.3000   -76.6000   -75.8000   -77.3000   -77.3000   -77.3000   -78.1000   -78.9000   -79.7000   -78.9000   -78.1000   -78.9000   -78.9000   -79.7000   -78.1000   -77.3000   -76.6000   -76.6000   -77.3000   -77.3000   -76.6000   -77.3000   -77.3000   -77.3000   -79.7000   -79.7000   -80.5000   -81.3000   -83.6000   -81.3000   -79.7000   -80.5000   -82.8000   -84.4000   -82.8000   -80.5000   -80.5000   -80.5000   -78.9000   -81.3000   -81.3000   -79.7000   -80.5000   -79.7000   -80.5000   -78.1000   -78.1000   -81.3000   -81.3000   -78.1000   -78.9000   -81.3000   -79.7000   -81.3000   -80.5000   -78.9000   -80.5000   -80.5000   -80.5000   -79.7000   -80.5000   -80.5000   -81.3000   -81.3000   -80.5000   -81.3000   -82.0000   -79.7000   -78.9000   -81.3000   -82.0000   -82.0000   -83.6000   -82.8000   -80.5000   -81.3000   -83.6000   -82.0000   -84.4000   -83.6000   -80.5000   -82.0000   -80.5000   -79.7000   -79.7000   -81.3000   -82.8000   -81.3000   -81.3000   -81.3000   -79.7000   -79.7000   -79.7000   -78.9000   -78.1000   -78.9000   -78.9000   -76.6000   -75.8000   -76.6000   -78.1000   -78.1000   -79.7000   -78.1000   -76.6000   -78.1000   -78.1000   -75.8000   -75.8000   -76.6000   -76.6000   -76.6000   -75.0000   -75.8000   -75.8000   -73.4000   -72.7000   -73.4000   -74.2000   -71.9000   -73.4000   -74.2000   -73.4000   -72.7000   -71.9000   -74.2000   -74.2000   -71.1000   -74.2000   -73.4000   -74.2000   -75.8000   -75.8000   -72.7000   -75.0000   -75.0000   -75.8000   -73.4000   -75.0000   -73.4000   -75.0000   -77.3000   -75.8000   -73.4000   -76.6000   -78.1000   -78.1000   -77.3000   -78.9000   -79.7000   -81.3000   -83.6000   -83.6000   -81.3000   -83.6000   -85.2000   -85.9000   -89.1000   -88.3000   -87.5000   -89.1000   -88.3000   -87.5000   -88.3000   -91.4000   -90.6000   -93.8000   -91.4000   -89.8000   -89.8000   -91.4000   -89.8000   -91.4000   -90.6000   -88.3000   -89.1000   -88.3000   -87.5000   -89.1000   -86.7000   -86.7000   -85.9000   -82.8000   -84.4000   -85.2000   -81.3000   -79.7000   -80.5000   -78.9000   -82.0000   -83.6000   -82.0000   -80.5000   -85.2000   -83.6000   -83.6000   -83.6000   -80.5000   -82.8000   -82.0000   -80.5000   -82.0000   -79.7000   -78.9000   -80.5000   -82.0000   -82.0000   -80.5000   -83.6000   -85.2000   -81.3000   -79.7000   -80.5000   -80.5000   -79.7000   -81.3000   -78.9000   -79.7000   -79.7000   -78.9000   -78.1000   -79.7000   -78.1000   -78.1000   -78.9000   -76.6000   -75.8000   -76.6000   -76.6000   -76.6000   -78.9000   -76.6000   -75.8000   -77.3000   -77.3000   -76.6000   -77.3000   -75.8000   -76.6000   -79.7000   -78.9000   -76.6000   -78.9000   -79.7000   -75.8000   -75.8000   -77.3000   -78.9000   -78.1000   -78.1000   -76.6000   -75.8000   -76.6000   -77.3000   -75.8000   -75.8000   -76.6000   -77.3000   -76.6000   -75.8000   -75.8000   -75.8000   -74.2000   -75.8000   -74.2000   -74.2000   -76.6000   -76.6000   -75.0000   -75.0000   -76.6000   -77.3000   -75.8000   -75.0000   -73.4000   -75.8000   -76.6000   -75.0000   -73.4000   -74.2000   -75.0000   -76.6000   -76.6000   -77.3000   -77.3000   -75.8000   -75.8000   -75.8000   -73.4000   -75.8000   -77.3000   -75.8000   -75.8000   -75.8000   -78.1000   -78.9000   -76.6000   -72.7000   -73.4000   -75.0000   -76.6000   -75.8000   -75.8000   -76.6000   -77.3000   -76.6000   -76.6000   -75.0000   -75.0000   -75.0000   -75.8000   -77.3000   -73.4000   -76.6000   -76.6000   -77.3000   -77.3000   -75.8000   -76.6000   -77.3000   -75.8000   -75.0000   -75.0000   -75.0000   -75.0000   -75.8000   -75.0000   -78.1000   -76.6000   -75.0000   -75.8000   -75.8000   -78.1000   -78.1000   -77.3000   -77.3000   -75.8000   -75.8000   -75.8000   -77.3000   -78.9000   -77.3000   -76.6000   -78.1000   -79.7000   -78.9000   -76.6000   -75.8000   -75.8000   -75.8000   -75.8000   -77.3000   -78.1000   -76.6000   -75.8000   -78.9000   -77.3000   -75.8000   -75.0000   -75.0000   -75.0000   -78.9000   -77.3000   -75.0000   -74.2000   -76.6000   -76.6000   -77.3000   -78.9000   -76.6000   -78.9000   -80.5000   -80.5000   -79.7000   -78.9000   -75.8000   -78.9000   -77.3000   -78.1000   -80.5000   -80.5000   -81.3000   -78.9000   -77.3000   -78.1000   -78.1000   -78.9000   -78.9000   -78.1000   -74.2000   -73.4000   -78.1000   -78.9000   -78.9000   -77.3000   -79.7000   -79.7000   -78.9000   -79.7000   -78.9000   -80.5000   -79.7000   -78.9000   -78.9000   -79.7000   -78.9000   -78.1000   -75.8000   -78.9000   -80.5000   -78.9000   -76.6000   -78.1000   -79.7000   -81.3000   -79.7000   -78.9000   -78.1000   -78.9000   -79.7000   -78.9000   -78.9000   -78.9000   -77.3000   -79.7000   -80.5000   -78.1000   -79.7000   -82.0000   -82.0000   -80.5000   -79.7000   -78.9000   -79.7000   -80.5000   -80.5000   -78.1000   -78.9000   -80.5000   -78.9000   -79.7000   -79.7000   -78.1000   -78.9000   -78.9000   -77.3000   -77.3000   -78.1000   -79.7000   -78.9000   -76.6000   -77.3000   -78.9000   -78.9000   -78.1000   -77.3000   -78.9000   -75.0000   -77.3000   -78.1000   -77.3000   -78.9000   -75.8000   -76.6000   -76.6000   -76.6000   -78.9000   -78.1000   -76.6000   -78.1000   -78.1000   -78.1000   -79.7000   -77.3000   -78.9000   -79.7000   -76.6000   -75.8000   -78.1000   -78.9000   -80.5000   -80.5000   -80.5000   -81.3000   -81.3000   -82.8000   -86.7000   -87.5000   -84.4000   -83.6000   -85.2000   -86.7000   -88.3000   -88.3000   -89.1000   -90.6000   -90.6000   -86.7000   -89.8000   -89.8000   -90.6000   -92.2000   -93.8000   -91.4000   -93.8000   -96.1000   -93.8000   -95.3000   -94.5000   -93.0000   -92.2000   -93.8000   -93.0000   -94.5000   -95.3000   -93.8000   -92.2000   -91.4000   -91.4000   -89.8000   -91.4000   -92.2000   -90.6000   -91.4000   -92.2000   -93.0000   -92.2000   -89.8000   -89.8000   -86.7000   -85.9000   -86.7000   -89.1000   -86.7000   -86.7000   -84.4000   -81.3000   -83.6000   -82.8000   -81.3000   -80.5000   -81.3000   -82.8000   -83.6000   -83.6000   -82.8000   -81.3000   -79.7000   -80.5000   -82.8000   -81.3000   -79.7000   -79.7000   -78.9000   -79.7000   -75.8000   -78.1000   -79.7000   -79.7000   -79.7000   -78.9000   -76.6000   -75.8000   -76.6000   -77.3000   -78.1000   -78.1000   -78.1000   -77.3000   -76.6000   -75.0000   -77.3000   -75.8000   -76.6000   -76.6000   -76.6000   -76.6000   -78.1000   -77.3000   -76.6000   -76.6000   -77.3000   -76.6000   -74.2000   -75.0000   -75.8000   -77.3000   -76.6000   -75.8000   -75.0000   -71.1000   -71.1000   -72.7000   -72.7000   -72.7000   -72.7000   -70.3000   -70.3000   -71.1000   -71.9000   -71.1000   -71.1000   -72.7000   -71.1000   -70.3000   -73.4000   -71.9000   -68.0000   -68.8000   -71.1000   -71.1000   -70.3000   -69.5000   -71.9000   -73.4000   -74.2000   -74.2000   -74.2000   -71.1000   -73.4000   -71.1000   -71.9000   -71.9000   -71.1000   -70.3000   -71.1000   -71.1000   -71.1000   -71.9000   -72.7000   -73.4000   -75.0000   -74.2000   -75.8000   -74.2000   -71.1000   -74.2000   -75.8000   -77.3000   -74.2000   -73.4000   -75.0000   -75.0000   -75.8000   -74.2000   -74.2000   -75.8000   -75.0000   -75.0000   -75.8000   -75.8000   -74.2000   -74.2000   -74.2000   -75.8000   -75.0000   -74.2000   -73.4000   -73.4000   -74.2000   -73.4000   -75.8000   -76.6000   -74.2000   -75.0000   -77.3000   -75.0000   -75.8000   -77.3000   -76.6000   -75.0000   -75.0000   -76.6000   -75.8000   -75.8000   -76.6000   -75.8000   -75.8000   -77.3000   -75.8000   -78.9000   -75.8000   -73.4000   -75.8000   -76.6000   -75.8000   -76.6000   -76.6000   -74.2000   -75.8000   -74.2000   -75.0000   -75.0000   -78.1000   -78.1000   -78.1000   -78.1000   -75.8000   -74.2000   -75.0000   -77.3000   -78.9000   -79.7000   -78.1000   -77.3000   -77.3000   -77.3000   -78.1000   -78.1000   -77.3000   -77.3000   -79.7000   -78.9000   -78.9000   -79.7000   -82.0000   -78.9000   -80.5000   -82.8000   -80.5000   -81.3000   -81.3000   -81.3000   -80.5000   -78.9000   -78.9000   -79.7000   -78.9000   -78.9000   -79.7000   -81.3000   -78.1000   -78.9000   -80.5000   -81.3000   -82.0000   -80.5000   -80.5000   -82.0000   -81.3000   -83.6000   -82.8000   -83.6000   -81.3000   -82.8000   -84.4000   -81.3000   -82.8000   -85.2000   -84.4000   -82.8000   -83.6000   -83.6000   -82.0000   -82.0000   -82.0000   -83.6000   -84.4000   -83.6000   -83.6000   -85.2000   -82.8000   -81.3000   -81.3000   -82.8000   -85.9000   -83.6000   -80.5000   -78.9000   -78.1000   -80.5000   -80.5000   -80.5000   -78.9000   -79.7000   -82.8000   -85.2000   -84.4000   -86.7000   -88.3000   -89.8000   -89.1000   -89.8000   -89.1000   -87.5000   -88.3000   -88.3000   -83.6000   -85.9000   -85.2000   -81.3000   -79.7000   -78.9000   -79.7000   -81.3000   -79.7000   -81.3000   -83.6000   -85.2000   -86.7000   -86.7000   -85.9000   -87.5000   -88.3000   -88.3000   -90.6000   -91.4000   -91.4000   -89.1000   -89.1000   -89.1000   -88.3000   -86.7000   -87.5000   -86.7000   -87.5000   -85.9000   -85.9000   -83.6000   -81.3000   -83.6000   -83.6000   -82.8000   -82.8000   -83.6000   -85.2000   -84.4000   -81.3000   -79.7000   -79.7000   -81.3000   -79.7000   -81.3000   -81.3000   -78.9000   -79.7000   -77.3000   -78.9000   -80.5000   -78.9000   -79.7000   -79.7000   -78.1000   -76.6000   -79.7000   -81.3000   -81.3000   -78.9000   -77.3000   -78.1000   -78.9000   -81.3000   -80.5000   -77.3000   -77.3000   -79.7000   -78.9000   -78.9000   -79.7000   -80.5000   -82.0000   -80.5000   -79.7000   -82.0000   -81.3000   -78.9000   -78.1000   -80.5000   -79.7000   -79.7000   -82.0000   -81.3000   -80.5000   -79.7000   -78.1000   -78.9000   -81.3000   -79.7000   -82.8000   -79.7000   -78.9000   -78.9000   -79.7000   -79.7000   -78.9000   -78.1000   -79.7000   -79.7000   -78.9000   -79.7000   -77.3000   -77.3000   -78.1000   -80.5000   -81.3000   -78.9000   -79.7000   -79.7000   -79.7000   -77.3000   -74.2000   -78.1000   -77.3000   -78.9000   -78.9000   -78.1000   -78.1000   -78.9000   -79.7000   -78.9000   -78.9000   -78.9000   -78.9000   -77.3000   -76.6000   -75.8000   -75.0000   -76.6000   -77.3000   -77.3000   -77.3000   -78.1000   -78.9000   -78.1000   -77.3000   -77.3000   -77.3000   -75.8000   -73.4000   -75.8000   -75.8000   -78.1000   -77.3000   -76.6000   -74.2000   -75.8000   -76.6000   -73.4000   -74.2000   -80.5000   -78.9000   -77.3000   -74.2000   -76.6000   -75.8000   -78.1000   -78.9000   -77.3000   -75.0000   -77.3000   -79.7000   -78.9000   -75.8000   -75.8000   -74.2000   -75.0000   -76.6000   -78.1000   -75.8000   -76.6000   -78.9000   -76.6000   -75.0000   -73.4000   -75.8000   -76.6000   -74.2000   -76.6000   -75.8000   -75.8000   -78.1000   -78.1000   -77.3000   -78.9000   -77.3000   -78.1000   -77.3000   -76.6000   -77.3000   -79.7000   -78.1000   -75.0000   -75.8000   -77.3000   -77.3000   -77.3000   -72.7000   -72.7000   -75.8000   -78.1000   -77.3000   -75.8000   -76.6000   -75.0000   -74.2000   -72.7000   -73.4000   -76.6000   -75.8000   -76.6000   -77.3000   -74.2000   -74.2000   -73.4000   -74.2000   -74.2000   -74.2000   -75.8000   -75.0000   -75.0000   -71.9000   -75.0000   -75.8000   -71.9000   -73.4000   -74.2000   -78.1000   -78.1000   -77.3000   -75.8000   -75.0000   -76.6000   -78.9000   -80.5000   -78.1000   -78.1000   -78.1000   -75.8000   -73.4000   -73.4000   -72.7000   -76.6000   -75.8000   -75.8000   -73.4000   -75.0000   -77.3000   -74.2000   -73.4000   -75.0000   -75.8000   -74.2000   -74.2000   -72.7000   -71.9000   -72.7000   -72.7000   -72.7000   -72.7000   -71.9000   -72.7000   -74.2000   -73.4000   -71.1000   -73.4000   -75.0000   -74.2000   -75.0000   -75.8000   -73.4000   -74.2000   -76.6000   -75.8000   -75.0000   -76.6000   -76.6000   -75.8000   -75.0000   -76.6000   -78.1000   -77.3000   -77.3000   -77.3000   -75.8000   -75.0000   -75.0000   -76.6000   -75.0000   -77.3000   -77.3000   -75.0000   -76.6000   -73.4000   -72.7000   -76.6000   -76.6000   -74.2000   -74.2000   -73.4000   -77.3000   -76.6000   -76.6000   -75.8000   -76.6000   -75.0000   -75.8000   -74.2000   -76.6000   -78.9000   -79.7000   -78.9000   -75.8000   -75.8000   -75.0000   -75.8000   -75.8000   -74.2000   -75.0000   -77.3000   -78.1000   -78.1000   -76.6000   -71.9000   -70.3000   -72.7000   -71.9000   -73.4000   -74.2000   -71.9000   -71.9000   -71.9000   -71.1000   -69.5000   -69.5000   -71.1000   -70.3000   -70.3000   -69.5000   -71.9000   -72.7000   -71.9000   -71.1000   -69.5000   -69.5000   -69.5000   -72.7000   -72.7000   -71.9000   -69.5000   -68.8000   -71.9000   -71.1000   -70.3000   -71.9000   -74.2000   -75.0000   -71.9000   -72.7000   -73.4000   -73.4000   -71.9000   -75.0000   -76.6000   -75.0000   -74.2000   -73.4000   -73.4000   -74.2000   -75.8000   -75.0000   -74.2000   -75.0000   -71.9000   -72.7000   -72.7000   -71.9000   -72.7000   -75.8000   -75.8000   -77.3000   -78.9000   -77.3000   -75.8000   -75.0000   -74.2000   -77.3000   -75.0000   -75.8000   -77.3000   -78.1000   -75.8000   -76.6000   -75.8000   -75.0000   -73.4000   -71.1000   -75.0000   -74.2000   -73.4000   -74.2000   -75.0000   -75.0000   -75.0000   -75.8000   -75.8000   -75.8000   -72.7000   -75.0000   -75.0000   -76.6000   -77.3000   -76.6000   -76.6000   -78.1000   -75.8000   -75.0000   -76.6000   -77.3000   -75.8000   -75.8000   -76.6000   -77.3000   -77.3000   -78.9000   -75.8000   -75.0000   -74.2000   -75.8000   -76.6000   -76.6000   -75.8000   -76.6000   -73.4000   -71.9000   -74.2000   -75.0000   -77.3000   -75.8000   -75.0000   -74.2000   -74.2000   -76.6000   -77.3000   -74.2000   -74.2000   -74.2000   -75.0000   -73.4000   -71.9000   -71.1000   -72.7000   -71.9000   -75.8000   -76.6000   -72.7000   -72.7000   -73.4000   -74.2000   -72.7000   -74.2000   -73.4000   -71.9000   -70.3000   -71.9000   -72.7000   -71.1000   -71.9000   -75.0000   -74.2000   -74.2000   -73.4000   -74.2000   -71.1000   -75.0000   -74.2000   -71.1000   -71.1000   -73.4000   -74.2000   -71.9000   -75.0000   -77.3000   -73.4000   -71.9000   -70.3000   -71.1000   -73.4000   -73.4000   -74.2000   -73.4000   -72.7000   -75.0000   -75.0000   -72.7000   -71.1000   -71.1000   -74.2000   -75.8000   -73.4000   -74.2000   -73.4000   -71.9000   -69.5000   -72.7000   -72.7000   -73.4000   -69.5000   -71.9000   -71.9000   -71.1000   -71.9000   -70.3000   -71.9000   -71.1000   -68.0000   -67.2000   -69.5000   -71.1000   -71.9000   -73.4000   -70.3000   -71.9000   -73.4000   -73.4000   -71.9000   -73.4000   -71.9000   -70.3000   -71.9000   -71.9000   -74.2000   -73.4000   -71.9000   -72.7000   -73.4000   -73.4000   -73.4000   -73.4000   -70.3000   -71.9000   -75.8000   -71.9000   -71.9000   -70.3000   -68.8000   -70.3000   -70.3000   -70.3000   -71.9000   -71.1000   -69.5000   -69.5000   -71.9000   -71.1000   -70.3000   -72.7000   -70.3000   -69.5000   -71.1000   -74.2000   -70.3000   -71.1000   -70.3000   -70.3000   -70.3000   -69.5000   -69.5000   -71.9000   -71.9000   -73.4000   -75.0000   -69.5000   -69.5000   -70.3000   -71.9000   -74.2000   -71.1000   -70.3000   -70.3000   -70.3000   -71.9000   -68.8000   -70.3000   -71.1000   -69.5000   -68.8000   -70.3000   -69.5000   -68.0000   -69.5000   -69.5000   -69.5000   -68.0000   -68.0000   -68.0000   -68.8000   -68.8000   -70.3000   -70.3000   -70.3000   -68.8000   -68.0000   -66.4000   -68.0000   -68.0000   -68.8000   -70.3000   -70.3000   -68.8000   -68.0000   -67.2000   -68.0000   -70.3000   -68.0000   -69.5000   -69.5000   -68.8000   -68.0000   -68.0000   -68.0000   -68.0000   -67.2000   -68.0000   -68.0000   -68.0000   -69.5000   -68.8000   -70.3000   -69.5000   -68.8000   -69.5000   -68.0000   -68.8000   -68.0000   -68.8000   -69.5000   -68.0000   -68.0000   -68.8000   -69.5000   -69.5000   -68.8000   -67.2000   -67.2000   -67.2000   -67.2000   -68.8000   -68.0000   -68.8000   -70.3000   -70.3000   -71.9000   -72.7000   -71.1000   -69.5000   -68.0000   -68.0000   -69.5000   -70.3000   -71.9000   -69.5000   -70.3000   -72.7000   -71.1000   -69.5000   -71.9000   -71.1000   -69.5000   -70.3000   -70.3000   -71.9000   -71.1000   -68.8000   -70.3000   -73.4000   -73.4000   -75.8000   -76.6000   -76.6000   -76.6000   -77.3000   -74.2000   -74.2000   -76.6000   -77.3000   -77.3000   -77.3000   -78.1000   -78.1000   -78.9000   -78.1000   -79.7000   -76.6000   -77.3000   -78.9000   -78.1000   -78.9000   -78.1000   -78.9000   -79.7000   -78.1000   -80.5000   -78.9000   -78.1000   -78.1000   -78.1000   -77.3000   -78.1000   -76.6000   -79.7000   -79.7000   -78.1000   -75.8000   -76.6000   -77.3000   -77.3000   -77.3000   -76.6000   -78.9000   -78.1000   -75.8000   -75.0000   -73.4000   -74.2000   -73.4000   -74.2000   -75.8000   -76.6000   -76.6000   -77.3000   -73.4000   -70.3000   -71.9000   -71.1000   -71.9000   -70.3000   -70.3000   -71.9000   -71.9000   -68.8000   -68.8000   -69.5000   -67.2000   -67.2000   -67.2000   -67.2000   -65.6000   -65.6000   -65.6000   -65.6000   -64.8000   -65.6000   -64.8000   -62.5000   -61.7000   -62.5000   -63.3000   -64.1000   -65.6000   -64.1000   -64.8000   -66.4000   -65.6000   -64.1000   -64.1000   -63.3000   -65.6000   -66.4000   -66.4000   -65.6000   -65.6000   -69.5000   -70.3000   -68.0000   -66.4000   -66.4000   -68.0000   -69.5000   -68.8000   -70.3000   -70.3000   -69.5000   -70.3000   -68.8000   -68.8000   -68.8000   -71.1000   -72.7000   -71.9000   -69.5000   -71.1000   -72.7000   -70.3000   -71.1000   -68.8000   -71.1000   -72.7000   -73.4000   -73.4000   -71.9000   -73.4000   -74.2000   -75.8000   -72.7000   -72.7000   -73.4000   -75.0000   -73.4000   -73.4000   -75.0000   -74.2000   -73.4000   -75.0000   -74.2000   -75.8000   -75.8000   -72.7000   -71.1000   -72.7000   -74.2000   -74.2000   -75.0000   -76.6000   -74.2000   -72.7000   -73.4000   -75.0000   -75.0000   -75.8000   -75.0000   -75.8000   -74.2000   -73.4000   -73.4000   -71.9000   -71.9000   -72.7000   -71.1000   -71.1000   -72.7000   -71.1000   -69.5000   -71.9000   -75.8000   -76.6000   -75.8000   -76.6000   -75.0000   -76.6000   -76.6000   -75.0000   -76.6000   -77.3000   -80.5000   -80.5000   -81.3000   -81.3000   -81.3000   -82.0000   -83.6000   -82.0000   -82.8000   -82.0000   -82.8000   -82.0000   -82.8000   -85.9000   -88.3000   -86.7000   -82.8000   -81.3000   -82.8000   -82.0000   -82.8000   -84.4000   -86.7000   -85.2000   -83.6000   -83.6000   -84.4000   -82.8000   -80.5000   -82.8000   -85.2000   -80.5000   -81.3000   -83.6000   -82.8000   -80.5000   -79.7000   -80.5000   -81.3000   -82.0000   -82.0000   -83.6000   -82.8000   -82.0000   -80.5000   -83.6000   -83.6000   -84.4000   -82.8000   -82.8000   -81.3000   -81.3000   -81.3000   -82.0000   -82.0000   -82.0000   -82.0000   -82.0000   -80.5000   -78.9000   -78.9000   -77.3000   -79.7000   -82.0000   -80.5000   -78.9000   -78.1000   -79.7000   -78.9000   -79.7000   -79.7000   -80.5000   -79.7000   -78.9000   -77.3000   -77.3000   -76.6000   -79.7000   -78.9000   -78.9000   -78.9000   -81.3000   -78.9000   -75.8000   -78.1000   -78.1000   -77.3000   -77.3000   -75.0000   -78.1000   -78.9000   -78.9000   -78.1000   -76.6000   -75.8000   -75.0000   -75.0000   -75.8000   -73.4000   -75.0000   -74.2000   -73.4000   -73.4000   -70.3000   -71.1000   -70.3000   -72.7000   -73.4000   -76.6000   -75.8000   -72.7000   -72.7000   -70.3000   -73.4000   -75.8000   -72.7000   -71.1000   -71.1000   -71.1000   -74.2000   -76.6000   -76.6000   -75.8000   -77.3000   -75.0000   -73.4000   -75.8000   -74.2000   -74.2000   -72.7000   -71.9000   -71.9000   -72.7000   -75.0000   -75.0000   -77.3000   -75.8000   -75.0000   -75.0000   -73.4000   -72.7000   -73.4000   -71.9000   -72.7000   -71.1000   -73.4000   -75.8000   -75.0000   -73.4000   -72.7000   -75.0000   -75.8000   -75.8000   -74.2000   -75.8000   -77.3000   -75.8000   -74.2000   -71.9000   -74.2000   -76.6000   -78.9000   -77.3000   -75.0000   -73.4000   -76.6000   -78.1000   -78.1000   -77.3000   -75.0000   -76.6000   -75.8000   -76.6000   -75.8000   -75.8000   -77.3000   -78.9000   -79.7000   -78.9000   -79.7000   -78.1000   -76.6000   -76.6000   -78.1000   -79.7000   -81.3000   -82.0000   -78.1000   -80.5000   -81.3000   -80.5000   -78.9000   -78.9000   -81.3000   -79.7000   -79.7000   -78.9000   -78.9000   -79.7000   -81.3000   -82.0000   -81.3000   -80.5000   -83.6000   -83.6000   -80.5000   -79.7000   -80.5000   -82.0000   -81.3000   -78.9000   -79.7000   -81.3000   -79.7000   -79.7000   -82.0000   -80.5000   -81.3000   -82.0000   -84.4000   -82.0000   -79.7000   -79.7000   -81.3000   -85.2000   -84.4000   -82.0000   -81.3000   -80.5000   -80.5000   -79.7000   -81.3000   -81.3000   -82.8000   -82.0000   -82.8000   -83.6000   -81.3000   -78.1000   -77.3000   -81.3000   -80.5000   -80.5000   -79.7000   -78.9000   -81.3000   -81.3000   -78.1000   -78.1000   -75.8000   -75.0000   -77.3000   -78.1000   -75.8000   -77.3000   -78.9000   -77.3000   -73.4000   -74.2000   -76.6000   -76.6000   -76.6000   -74.2000   -73.4000   -73.4000   -71.1000   -71.9000   -71.9000   -72.7000   -70.3000   -71.9000   -74.2000   -72.7000   -69.5000   -69.5000   -70.3000   -69.5000   -71.1000   -72.7000   -72.7000   -71.9000   -71.1000   -70.3000   -69.5000   -69.5000   -68.8000   -68.8000   -69.5000   -72.7000   -73.4000   -69.5000   -68.8000   -70.3000   -71.1000   -73.4000   -71.9000   -68.8000   -69.5000   -68.0000   -69.5000   -71.1000   -71.1000   -70.3000   -69.5000   -71.1000   -72.7000   -71.1000   -71.9000   -71.1000   -74.2000   -75.8000   -75.8000   -74.2000   -73.4000   -71.9000   -75.0000   -75.8000   -75.8000   -75.8000   -73.4000   -71.9000   -71.1000   -72.7000   -73.4000   -73.4000   -73.4000   -74.2000   -75.0000   -72.7000   -73.4000   -75.8000   -75.0000   -73.4000   -74.2000   -74.2000   -74.2000   -72.7000   -75.0000   -75.0000   -75.8000   -75.0000   -75.8000   -78.1000   -75.8000   -73.4000   -75.0000   -78.1000   -75.8000   -74.2000   -71.1000   -70.3000   -73.4000   -75.0000   -73.4000   -71.9000   -73.4000   -75.0000   -75.8000   -75.8000   -76.6000   -75.0000   -73.4000   -71.9000   -74.2000   -75.8000   -75.0000   -74.2000   -72.7000   -70.3000   -72.7000   -74.2000   -71.9000   -71.9000   -71.1000   -71.1000   -74.2000   -75.0000   -73.4000   -73.4000   -74.2000   -71.9000   -70.3000   -73.4000   -73.4000   -73.4000   -73.4000   -73.4000   -72.7000   -73.4000   -72.7000   -73.4000   -69.5000   -70.3000   -70.3000   -72.7000   -75.0000   -71.9000   -69.5000   -71.1000   -75.0000   -74.2000   -76.6000   -75.0000   -73.4000   -75.0000   -73.4000   -71.9000   -75.0000   -75.8000   -75.8000   -78.1000   -79.7000   -79.7000   -79.7000   -81.3000   -84.4000   -80.5000   -78.9000   -78.9000   -79.7000   -80.5000   -80.5000   -79.7000   -79.7000   -80.5000   -78.9000   -79.7000   -80.5000   -75.8000   -77.3000   -79.7000   -78.1000   -76.6000   -78.9000   -78.9000   -76.6000   -77.3000   -77.3000   -79.7000   -81.3000   -81.3000   -78.1000   -78.9000   -77.3000   -75.8000   -78.1000   -78.1000   -77.3000   -75.8000   -77.3000   -78.1000   -79.7000   -77.3000   -73.4000   -75.8000   -76.6000   -75.8000   -77.3000   -76.6000   -76.6000   -77.3000   -77.3000   -75.8000   -76.6000   -77.3000   -77.3000   -78.1000   -75.8000   -74.2000   -74.2000   -76.6000   -79.7000   -79.7000   -78.1000   -76.6000   -77.3000   -78.1000   -76.6000   -75.8000   -78.1000   -77.3000   -76.6000   -75.8000   -75.0000   -77.3000   -75.0000   -72.7000   -74.2000   -75.8000   -75.8000   -74.2000   -73.4000   -75.8000   -73.4000   -72.7000   -73.4000   -76.6000   -75.8000   -73.4000   -73.4000   -71.9000   -75.0000   -75.8000   -72.7000   -73.4000   -72.7000   -70.3000   -71.1000   -73.4000   -73.4000   -75.0000   -73.4000   -72.7000   -73.4000   -74.2000   -74.2000   -71.1000   -72.7000   -74.2000   -73.4000   -75.0000   -73.4000   -74.2000   -73.4000   -70.3000   -71.1000   -75.0000   -75.8000   -73.4000   -72.7000   -73.4000   -71.9000   -73.4000   -70.3000   -70.3000   -70.3000   -73.4000   -72.7000   -69.5000   -71.9000   -73.4000   -74.2000   -72.7000   -70.3000   -69.5000   -73.4000   -74.2000   -70.3000   -68.0000   -70.3000   -71.1000   -71.9000   -71.1000   -70.3000   -68.8000   -71.1000   -72.7000   -72.7000   -70.3000   -69.5000   -75.0000   -75.0000   -73.4000   -72.7000   -74.2000   -75.0000   -71.1000   -71.9000   -70.3000   -69.5000   -71.1000   -72.7000   -69.5000   -70.3000   -71.1000   -70.3000   -70.3000   -71.9000   -70.3000   -69.5000   -71.1000   -73.4000   -70.3000   -68.8000   -70.3000   -71.1000   -70.3000   -68.8000   -68.8000   -68.8000   -71.9000   -71.9000   -69.5000   -68.8000   -69.5000   -71.9000   -69.5000   -68.8000   -69.5000   -70.3000   -68.0000   -68.8000   -67.2000   -68.0000   -70.3000   -70.3000   -68.0000   -69.5000   -69.5000   -68.8000   -69.5000   -71.1000   -71.9000   -74.2000   -71.1000   -68.0000   -68.0000   -68.8000   -68.0000   -67.2000   -68.0000   -69.5000   -69.5000   -71.1000   -70.3000   -70.3000   -69.5000   -68.8000   -68.8000   -70.3000   -68.0000   -66.4000   -69.5000   -70.3000   -71.9000   -69.5000   -68.0000   -71.1000   -72.7000   -69.5000   -68.8000   -69.5000   -70.3000   -69.5000   -68.8000   -70.3000   -71.1000   -71.1000   -71.9000   -73.4000   -69.5000   -71.1000   -72.7000   -73.4000   -71.9000   -71.9000   -71.1000   -71.9000   -71.1000   -70.3000   -71.1000   -70.3000   -70.3000   -70.3000   -69.5000   -68.8000   -71.9000   -71.9000   -72.7000   -71.9000   -70.3000   -70.3000   -71.9000   -70.3000   -68.0000   -69.5000   -70.3000   -70.3000   -69.5000   -70.3000   -71.9000   -71.9000   -69.5000   -68.8000   -70.3000   -69.5000   -69.5000   -71.1000   -72.7000   -71.1000   -71.1000   -71.1000   -75.0000   -74.2000   -71.9000   -74.2000   -75.0000   -72.7000   -75.0000   -75.8000   -75.8000   -76.6000   -76.6000   -75.8000   -76.6000   -75.0000   -73.4000   -75.0000   -76.6000   -75.8000   -74.2000   -72.7000   -74.2000   -75.0000   -75.0000   -73.4000   -75.0000   -74.2000   -74.2000   -75.0000   -74.2000   -71.9000   -71.1000   -70.3000   -70.3000   -70.3000   -72.7000   -75.8000   -73.4000   -73.4000   -74.2000   -71.1000   -71.9000   -72.7000   -72.7000   -75.0000   -71.9000   -71.1000   -68.8000   -68.0000   -68.8000   -69.5000   -68.0000   -68.8000   -70.3000   -71.1000   -68.0000   -67.2000   -69.5000   -68.8000   -71.1000   -70.3000   -72.7000   -72.7000   -73.4000   -75.0000   -71.9000   -70.3000   -73.4000   -71.9000   -70.3000   -70.3000   -71.1000   -72.7000   -73.4000   -71.9000   -70.3000   -75.0000   -73.4000   -72.7000   -73.4000   -72.7000   -71.1000   -69.5000   -69.5000   -69.5000   -70.3000   -70.3000   -69.5000   -70.3000   -71.1000   -68.8000   -68.0000   -67.2000   -68.0000   -69.5000   -68.0000   -67.2000   -67.2000   -67.2000   -66.4000   -67.2000   -65.6000   -66.4000   -67.2000   -67.2000   -67.2000   -68.8000   -69.5000   -67.2000   -67.2000   -64.1000   -63.3000   -65.6000   -69.5000   -67.2000   -68.8000   -71.9000   -68.0000   -69.5000   -71.9000   -72.7000   -73.4000   -72.7000   -72.7000   -75.0000   -75.8000   -72.7000   -74.2000   -73.4000   -70.3000   -73.4000   -75.0000   -77.3000   -78.9000   -78.9000   -77.3000   -75.8000   -77.3000   -79.7000   -81.3000   -79.7000   -82.0000   -83.6000   -81.3000   -81.3000   -84.4000   -84.4000   -86.7000   -89.1000   -87.5000   -87.5000   -86.7000   -88.3000   -87.5000   -88.3000   -87.5000   -87.5000   -89.8000   -88.3000   -91.4000   -89.1000   -89.1000   -91.4000   -91.4000   -90.6000   -91.4000   -90.6000   -88.3000   -89.1000   -89.8000   -91.4000   -89.1000   -90.6000   -92.2000   -92.2000   -91.4000   -94.5000   -95.3000   -90.6000   -89.1000   -93.0000   -93.0000   -92.2000   -90.6000   -92.2000   -93.8000   -92.2000   -90.6000   -89.1000   -92.2000   -93.0000   -93.0000   -93.8000   -92.2000   -90.6000   -87.5000   -91.4000   -92.2000   -92.2000   -90.6000   -90.6000   -92.2000   -90.6000   -88.3000   -90.6000   -90.6000   -91.4000   -90.6000   -92.2000   -92.2000   -91.4000   -90.6000   -90.6000   -89.8000   -89.1000   -89.1000   -89.8000   -90.6000   -88.3000   -87.5000   -87.5000   -86.7000   -86.7000   -86.7000   -88.3000   -87.5000   -85.9000   -82.8000   -83.6000   -83.6000   -78.9000   -78.1000   -80.5000   -81.3000   -80.5000   -78.9000   -79.7000   -77.3000   -76.6000   -77.3000   -77.3000   -76.6000   -75.8000   -75.8000   -74.2000   -73.4000   -73.4000   -73.4000   -74.2000   -73.4000   -73.4000   -73.4000   -73.4000   -71.9000   -71.9000   -74.2000   -73.4000   -72.7000   -72.7000   -74.2000   -73.4000   -70.3000   -70.3000   -71.9000   -71.1000   -70.3000   -69.5000   -69.5000   -71.9000   -72.7000   -71.9000   -71.9000   -70.3000   -73.4000   -73.4000   -75.8000   -71.9000   -75.8000   -75.8000   -72.7000   -71.9000   -73.4000   -76.6000   -77.3000   -75.0000   -77.3000   -76.6000   -76.6000   -77.3000   -78.9000   -77.3000   -77.3000   -78.9000   -78.9000   -79.7000   -79.7000   -78.9000   -79.7000   -79.7000   -80.5000   -78.9000   -78.1000   -77.3000   -79.7000   -79.7000   -78.9000   -80.5000   -81.3000   -79.7000   -80.5000   -78.1000   -78.1000   -80.5000   -78.9000   -78.9000   -80.5000   -82.8000   -81.3000   -80.5000   -80.5000   -79.7000   -78.9000   -78.1000   -79.7000   -78.1000   -77.3000   -78.9000   -80.5000   -82.8000   -81.3000   -78.9000   -78.1000   -78.1000   -77.3000   -78.9000   -78.9000   -79.7000   -78.9000   -76.6000   -76.6000   -77.3000   -75.0000   -75.0000   -77.3000   -77.3000   -77.3000   -77.3000   -77.3000   -79.7000   -79.7000   -76.6000   -78.1000   -80.5000   -79.7000   -77.3000   -79.7000   -78.1000   -77.3000   -77.3000   -78.9000   -76.6000   -76.6000   -77.3000   -79.7000   -77.3000   -76.6000   -77.3000   -76.6000   -76.6000   -75.0000   -74.2000   -75.8000   -78.1000   -78.9000   -75.0000   -73.4000   -75.0000   -76.6000   -75.0000   -72.7000   -75.8000   -74.2000   -74.2000   -71.9000   -74.2000   -74.2000   -74.2000   -75.8000   -74.2000   -72.7000   -73.4000   -74.2000   -72.7000   -73.4000   -75.0000   -75.0000   -74.2000   -74.2000   -75.0000   -77.3000   -75.0000   -73.4000   -72.7000   -72.7000   -70.3000   -70.3000   -73.4000   -74.2000   -75.8000   -76.6000   -74.2000   -75.8000   -74.2000   -73.4000   -75.8000   -77.3000   -77.3000   -75.8000   -75.0000   -77.3000   -77.3000   -74.2000   -73.4000   -73.4000   -71.9000   -75.0000   -75.8000   -75.0000   -73.4000   -74.2000   -74.2000   -73.4000   -72.7000   -72.7000   -73.4000   -75.8000   -74.2000   -72.7000   -75.8000   -73.4000   -73.4000   -75.8000   -74.2000   -75.8000   -76.6000   -75.0000   -75.0000   -75.0000   -74.2000   -72.7000   -71.9000   -75.8000   -75.0000   -76.6000   -74.2000   -72.7000   -71.9000   -74.2000   -76.6000   -74.2000   -76.6000   -74.2000   -72.7000   -70.3000   -71.1000   -72.7000   -73.4000   -75.8000   -77.3000   -76.6000   -73.4000   -71.9000   -70.3000   -74.2000   -71.1000   -71.1000   -71.9000   -76.6000   -75.8000   -74.2000   -73.4000   -73.4000   -75.0000   -76.6000   -75.8000   -75.0000   -75.0000   -76.6000   -74.2000   -70.3000   -71.1000   -75.0000   -75.0000   -75.0000   -75.8000   -75.8000   -73.4000   -75.0000   -76.6000   -75.8000   -75.8000   -71.9000   -71.9000   -72.7000   -74.2000   -73.4000   -75.0000   -75.0000   -73.4000   -71.9000   -71.9000   -77.3000   -76.6000   -75.8000   -72.7000   -76.6000   -72.7000   -71.9000   -75.0000   -75.0000   -75.8000   -75.8000   -75.8000   -76.6000   -72.7000   -74.2000   -72.7000   -71.9000   -73.4000   -74.2000   -74.2000   -74.2000   -73.4000   -72.7000   -74.2000   -77.3000   -78.1000   -75.0000   -74.2000   -72.7000   -74.2000   -75.0000   -73.4000   -76.6000   -75.0000   -74.2000   -75.8000   -75.0000   -75.0000   -74.2000   -75.0000   -75.0000   -78.1000   -78.1000   -78.1000   -77.3000   -78.1000   -77.3000   -73.4000   -74.2000   -77.3000   -77.3000   -77.3000   -78.1000   -78.1000   -77.3000   -76.6000   -75.8000   -75.8000   -76.6000   -76.6000   -77.3000   -75.8000   -76.6000   -78.9000   -76.6000   -76.6000   -75.0000   -75.8000   -78.1000   -79.7000   -78.1000   -74.2000   -75.0000   -77.3000   -78.9000   -75.8000   -76.6000   -76.6000   -74.2000   -75.0000   -75.8000   -74.2000   -75.0000   -71.9000   -75.8000   -75.0000   -73.4000   -73.4000   -74.2000   -73.4000   -70.3000   -71.1000   -71.1000   -72.7000   -72.7000   -76.6000   -75.8000   -71.1000   -71.9000   -74.2000   -73.4000   -70.3000   -71.9000   -71.1000   -69.5000   -70.3000   -69.5000   -71.9000   -69.5000   -68.8000   -72.7000   -72.7000   -69.5000   -69.5000   -68.8000   -68.0000   -68.0000   -68.8000   -71.1000   -70.3000   -70.3000   -69.5000   -69.5000   -70.3000   -68.8000   -68.0000   -71.1000   -69.5000   -70.3000   -68.8000   -69.5000   -70.3000   -70.3000   -72.7000   -72.7000   -75.8000   -75.0000   -72.7000   -71.9000   -72.7000   -75.8000   -72.7000   -73.4000   -73.4000   -72.7000   -71.9000   -72.7000   -72.7000   -73.4000   -75.0000   -76.6000   -75.0000   -71.9000   -73.4000   -75.8000   -73.4000   -75.8000   -76.6000   -75.8000   -76.6000   -75.8000   -77.3000   -76.6000   -76.6000   -76.6000   -75.8000   -75.0000   -75.0000   -75.0000   -75.0000   -77.3000   -78.1000   -75.0000   -73.4000   -73.4000   -76.6000   -75.0000   -74.2000   -78.1000   -77.3000   -76.6000   -74.2000   -72.7000   -74.2000   -73.4000   -70.3000   -70.3000   -71.1000   -72.7000   -75.0000   -72.7000   -72.7000   -71.1000   -67.2000   -71.9000   -71.1000   -71.9000   -71.1000   -71.1000   -70.3000   -70.3000   -68.8000   -69.5000   -69.5000   -73.4000   -72.7000   -69.5000   -68.8000   -68.8000   -68.0000   -67.2000   -66.4000   -68.8000   -71.1000   -70.3000   -67.2000   -66.4000   -67.2000   -71.1000   -70.3000   -67.2000   -68.0000   -68.0000   -67.2000   -65.6000   -66.4000   -64.1000   -64.1000   -67.2000   -64.1000   -63.3000   -64.1000   -67.2000   -68.8000   -68.0000   -62.5000   -65.6000   -68.8000   -68.0000   -68.8000   -65.6000   -68.0000   -69.5000   -68.8000   -68.8000   -69.5000   -69.5000   -69.5000   -71.9000   -71.9000   -71.1000   -70.3000   -67.2000   -70.3000   -69.5000   -71.1000   -69.5000   -71.9000   -70.3000   -71.1000   -71.1000   -74.2000   -71.1000   -70.3000   -74.2000   -75.0000   -73.4000   -71.9000   -72.7000   -70.3000   -69.5000   -71.9000   -71.9000   -76.6000   -75.0000   -73.4000   -74.2000   -75.8000   -72.7000   -72.7000   -73.4000   -75.0000   -75.8000   -74.2000   -73.4000   -75.0000   -77.3000   -75.0000   -75.8000   -75.0000   -75.0000   -75.0000   -76.6000   -76.6000   -75.0000   -75.8000   -75.0000   -75.0000   -73.4000   -75.0000   -76.6000   -77.3000   -77.3000   -72.7000   -72.7000   -75.0000   -76.6000   -76.6000   -75.8000   -76.6000   -74.2000   -75.8000   -75.8000   -76.6000   -75.8000   -77.3000   -77.3000   -77.3000   -78.1000   -77.3000   -78.1000   -77.3000   -78.9000   -78.1000   -79.7000   -78.1000   -78.9000   -79.7000   -79.7000   -78.9000   -78.9000   -79.7000   -78.1000   -75.0000   -75.8000   -80.5000   -79.7000   -76.6000   -78.1000   -78.1000   -82.0000   -83.6000   -84.4000   -84.4000   -85.2000   -85.2000   -86.7000   -87.5000   -87.5000   -85.9000   -85.2000   -85.2000   -87.5000   -87.5000   -88.3000   -91.4000   -89.8000   -91.4000   -89.1000   -89.1000   -90.6000   -89.1000   -89.1000   -88.3000   -89.8000   -89.8000   -90.6000   -91.4000   -89.8000   -91.4000   -90.6000   -90.6000   -91.4000   -89.1000   -88.3000   -88.3000   -84.4000   -84.4000   -84.4000   -85.9000   -85.2000   -82.0000   -83.6000   -85.2000   -82.8000   -83.6000   -81.3000   -81.3000   -81.3000   -82.8000   -82.0000   -80.5000   -77.3000   -78.1000   -78.9000   -79.7000   -81.3000   -81.3000   -81.3000   -78.9000   -79.7000   -79.7000   -79.7000   -79.7000   -79.7000   -79.7000   -77.3000   -78.9000   -75.0000   -71.9000   -72.7000   -74.2000   -73.4000   -73.4000   -76.6000   -74.2000   -76.6000   -78.1000   -78.9000   -79.7000   -77.3000   -78.9000   -79.7000   -77.3000   -76.6000   -78.9000   -79.7000   -80.5000   -80.5000   -79.7000   -78.1000   -79.7000   -80.5000   -80.5000   -81.3000   -79.7000   -78.9000   -79.7000   -78.9000   -78.1000   -76.6000   -74.2000   -77.3000   -76.6000   -77.3000   -77.3000   -75.8000   -78.1000   -76.6000   -75.8000   -75.8000   -78.9000   -77.3000   -76.6000   -78.9000   -77.3000   -78.1000   -77.3000   -76.6000   -77.3000   -75.0000   -75.8000   -76.6000   -75.0000   -78.1000   -77.3000   -74.2000   -75.0000   -76.6000   -75.8000   -75.8000   -72.7000   -74.2000   -75.0000   -73.4000   -75.0000   -74.2000   -75.0000   -72.7000   -71.1000   -71.9000   -74.2000   -73.4000   -71.9000   -71.1000   -69.5000   -69.5000   -71.9000   -70.3000   -69.5000   -71.1000   -71.9000   -75.0000   -71.1000   -71.1000   -71.1000   -69.5000   -71.1000   -72.7000   -68.8000   -68.0000   -69.5000   -71.1000   -70.3000   -69.5000   -69.5000   -70.3000   -70.3000   -71.9000   -69.5000   -68.8000   -68.0000   -69.5000   -68.8000   -71.1000   -71.1000   -70.3000   -68.8000   -70.3000   -70.3000   -68.8000   -68.8000   -69.5000   -68.8000   -68.0000   -70.3000   -72.7000   -71.9000   -71.1000   -69.5000   -68.0000   -68.0000   -69.5000   -69.5000   -69.5000   -68.8000   -67.2000   -68.8000   -70.3000   -68.8000   -72.7000   -71.1000   -71.1000   -70.3000   -69.5000   -71.1000   -70.3000   -69.5000   -68.0000   -68.8000   -69.5000   -67.2000   -68.0000   -67.2000   -68.0000   -68.0000   -68.0000   -70.3000   -71.1000   -71.1000   -71.9000   -72.7000   -71.9000   -71.9000   -69.5000   -70.3000   -71.1000   -71.9000   -69.5000   -69.5000   -71.1000   -75.0000   -73.4000   -73.4000   -72.7000   -72.7000   -72.7000   -70.3000   -70.3000   -71.9000   -74.2000   -71.1000   -71.1000   -71.9000   -71.9000   -71.9000   -74.2000   -74.2000   -73.4000   -72.7000   -71.9000   -71.9000   -71.1000   -74.2000   -73.4000   -70.3000   -72.7000   -73.4000   -72.7000   -72.7000   -71.1000   -73.4000   -73.4000   -75.0000   -73.4000   -75.0000   -76.6000   -73.4000   -73.4000   -75.0000   -75.8000   -72.7000   -73.4000   -74.2000   -75.0000   -74.2000   -75.8000   -75.8000   -75.8000   -75.8000   -75.0000   -75.0000   -75.8000   -75.8000   -75.8000   -78.1000   -76.6000   -75.8000   -75.0000   -77.3000   -77.3000   -75.8000   -76.6000   -78.1000   -76.6000   -77.3000   -78.1000   -80.5000   -79.7000   -79.7000   -78.9000   -78.9000   -78.9000   -80.5000   -79.7000   -80.5000   -81.3000   -81.3000   -80.5000   -78.1000   -81.3000   -80.5000   -78.1000   -80.5000   -81.3000   -80.5000   -78.9000   -76.6000   -76.6000   -76.6000   -78.9000   -77.3000   -76.6000   -79.7000   -77.3000   -77.3000   -75.0000   -74.2000   -75.0000   -74.2000   -74.2000   -72.7000   -75.0000   -75.8000   -76.6000   -75.0000   -75.0000   -76.6000   -75.0000   -73.4000   -72.7000   -71.9000   -74.2000   -75.0000   -75.8000   -75.8000   -74.2000   -76.6000   -75.8000   -72.7000   -72.7000   -74.2000   -74.2000   -75.8000   -77.3000   -78.9000   -82.8000   -85.9000   -85.2000   -84.4000   -85.9000   -86.7000   -85.2000   -85.2000   -87.5000   -85.9000   -86.7000   -87.5000   -84.4000   -86.7000   -89.1000   -85.9000   -86.7000   -84.4000   -80.5000   -80.5000   -81.3000   -81.3000   -79.7000   -77.3000   -78.9000   -79.7000   -78.1000   -79.7000   -80.5000   -79.7000   -80.5000   -81.3000   -80.5000   -79.7000   -78.9000   -76.6000   -78.1000   -79.7000   -80.5000   -78.9000   -78.9000   -80.5000   -78.9000   -79.7000   -80.5000   -78.9000   -78.1000   -76.6000   -78.1000   -78.9000   -78.9000   -77.3000   -78.1000   -77.3000   -77.3000   -78.1000   -75.8000   -73.4000   -75.8000   -77.3000   -77.3000   -75.0000   -74.2000   -73.4000   -73.4000   -74.2000   -71.1000   -73.4000   -75.8000   -75.0000   -75.0000   -74.2000   -75.8000   -75.8000   -75.0000   -71.9000   -74.2000   -76.6000   -77.3000   -73.4000   -74.2000   -75.0000   -74.2000   -71.9000   -73.4000   -76.6000   -77.3000   -75.0000   -76.6000   -75.0000   -75.0000   -77.3000   -76.6000   -75.8000   -75.0000   -73.4000   -74.2000   -74.2000   -75.8000   -72.7000   -75.0000   -76.6000 