   -93.8000   -93.0000   -94.5000   -96.1000   -96.9000   -92.2000   -93.0000   -93.0000   -92.2000   -92.2000   -89.1000   -86.7000   -87.5000   -84.4000   -85.9000   -83.6000   -85.2000   -81.3000   -80.5000   -80.5000   -79.7000   -80.5000   -79.7000   -77.3000   -76.6000   -71.9000   -73.4000   -75.8000   -72.7000   -75.0000   -72.7000   -69.5000   -69.5000   -71.1000   -69.5000   -67.2000   -66.4000   -71.1000   -69.5000   -68.0000   -70.3000   -68.8000   -68.0000   -67.2000   -66.4000   -66.4000   -68.0000   -67.2000   -66.4000   -66.4000   -68.0000   -68.0000   -66.4000   -68.8000   -68.0000   -68.0000   -68.0000   -67.2000   -68.8000   -71.9000   -69.5000   -69.5000   -68.8000   -68.8000   -68.8000   -68.0000   -68.0000   -66.4000   -65.6000   -67.2000   -67.2000   -71.1000   -71.1000   -73.4000   -71.9000   -70.3000   -68.8000   -72.7000   -71.1000   -75.0000   -73.4000   -74.2000   -71.9000   -72.7000   -74.2000   -72.7000   -73.4000   -75.0000   -73.4000   -75.0000   -78.1000   -78.1000   -77.3000   -72.7000   -75.0000   -75.8000   -75.8000   -75.0000   -75.8000   -77.3000   -78.1000   -75.8000   -74.2000   -77.3000   -78.9000   -78.1000   -78.1000   -75.0000   -75.8000   -71.9000   -74.2000   -72.7000   -75.0000   -75.0000   -71.9000   -74.2000   -73.4000   -74.2000   -75.0000   -77.3000   -77.3000   -75.0000   -75.8000   -78.9000   -78.1000   -74.2000   -73.4000   -77.3000   -76.6000   -78.9000   -78.9000   -78.1000   -77.3000   -74.2000   -73.4000   -73.4000   -74.2000   -75.0000   -72.7000   -72.7000   -73.4000   -73.4000   -76.6000   -72.7000   -69.5000   -71.1000   -69.5000   -73.4000   -75.0000   -74.2000   -72.7000   -75.0000   -73.4000   -71.1000   -71.1000   -73.4000   -71.1000   -71.1000   -73.4000   -74.2000   -74.2000   -74.2000   -73.4000   -74.2000   -72.7000   -70.3000   -71.9000   -72.7000   -69.5000   -67.2000   -67.2000   -68.8000   -71.1000   -71.9000   -69.5000   -71.1000   -71.1000   -75.0000   -72.7000   -73.4000   -71.9000   -71.9000   -71.9000   -68.8000   -68.8000   -69.5000   -69.5000   -71.1000   -71.1000   -68.8000   -68.0000   -68.8000   -70.3000   -72.7000   -71.9000   -71.9000   -71.9000   -69.5000   -68.8000   -71.1000   -74.2000   -73.4000   -69.5000   -68.0000   -68.8000   -68.8000   -68.0000   -71.9000   -70.3000   -68.8000   -68.0000   -68.8000   -70.3000   -68.0000   -68.8000   -67.2000   -68.8000   -70.3000   -71.9000   -71.1000   -71.9000   -71.9000   -70.3000   -71.1000   -71.1000   -70.3000   -72.7000   -72.7000   -76.6000   -74.2000   -75.8000   -75.8000   -75.0000   -77.3000   -77.3000   -78.1000   -75.8000   -74.2000   -77.3000   -77.3000   -82.8000   -84.4000   -83.6000   -85.9000   -87.5000   -85.9000   -83.6000   -84.4000   -85.9000   -87.5000   -85.9000   -85.2000   -83.6000   -86.7000   -89.1000   -86.7000   -85.9000   -85.9000   -88.3000   -87.5000   -87.5000   -85.9000   -85.2000   -88.3000   -85.2000   -84.4000   -85.9000   -86.7000   -85.2000   -85.9000   -85.2000   -82.0000   -82.8000   -82.0000   -83.6000   -80.5000   -82.0000   -84.4000   -82.8000   -83.6000   -84.4000   -82.0000   -82.0000   -81.3000   -81.3000   -82.0000   -81.3000   -80.5000   -82.0000   -82.0000   -81.3000   -82.0000   -82.0000   -81.3000   -79.7000   -78.1000   -77.3000   -76.6000   -72.7000   -75.8000   -75.8000   -78.9000   -78.1000   -78.9000   -79.7000   -76.6000   -75.8000   -78.1000   -77.3000   -78.1000   -78.9000   -77.3000   -76.6000   -76.6000   -77.3000   -75.0000   -79.7000   -80.5000   -78.1000   -79.7000   -78.1000   -79.7000   -82.8000   -78.9000   -77.3000   -76.6000   -76.6000   -76.6000   -78.9000   -76.6000   -75.0000   -78.9000   -77.3000   -80.5000   -79.7000   -78.9000   -78.9000   -81.3000   -82.8000   -82.0000   -82.8000   -82.0000   -80.5000   -82.0000   -81.3000   -78.9000   -84.4000   -80.5000   -80.5000   -81.3000   -80.5000   -80.5000   -82.0000   -83.6000   -81.3000   -78.1000   -79.7000   -79.7000   -78.9000   -77.3000   -79.7000   -79.7000   -77.3000   -76.6000   -75.8000   -74.2000   -71.1000   -73.4000   -78.1000   -75.8000   -76.6000   -76.6000   -73.4000   -71.9000   -71.9000   -71.9000   -72.7000   -74.2000   -74.2000   -73.4000   -73.4000   -75.8000   -73.4000   -73.4000   -73.4000   -76.6000   -78.9000   -76.6000   -77.3000   -81.3000   -81.3000   -82.8000   -85.2000   -82.0000   -81.3000   -78.9000   -78.9000   -79.7000   -80.5000   -81.3000   -82.0000   -80.5000   -81.3000   -84.4000   -86.7000   -88.3000   -87.5000   -85.2000   -83.6000   -82.0000   -81.3000   -82.8000   -81.3000   -82.0000   -80.5000   -82.8000   -87.5000   -89.1000   -86.7000   -84.4000   -82.8000   -80.5000   -83.6000   -83.6000   -81.3000   -83.6000   -82.0000   -82.0000   -79.7000   -82.0000   -84.4000   -83.6000   -82.0000   -78.9000   -79.7000   -80.5000   -80.5000   -79.7000   -80.5000   -78.9000   -78.1000   -76.6000   -76.6000   -74.2000   -72.7000   -70.3000   -71.1000   -73.4000   -75.0000   -75.0000   -76.6000   -76.6000   -75.0000   -77.3000   -75.8000   -75.0000   -74.2000   -71.1000   -68.8000   -70.3000   -71.9000   -74.2000   -72.7000   -71.1000   -69.5000   -69.5000   -70.3000   -70.3000   -71.1000   -69.5000   -73.4000   -72.7000   -70.3000   -69.5000   -68.8000   -69.5000   -68.0000   -68.8000   -68.8000   -66.4000   -68.8000   -69.5000   -71.1000   -72.7000   -70.3000   -68.0000   -68.0000   -69.5000   -69.5000   -67.2000   -68.8000   -66.4000   -64.8000   -64.8000   -67.2000   -69.5000   -68.0000   -69.5000   -69.5000   -71.9000   -68.8000   -68.0000   -71.1000   -66.4000   -66.4000   -68.0000   -67.2000   -64.1000   -64.8000   -66.4000   -64.8000   -65.6000   -64.1000   -66.4000   -66.4000   -65.6000   -65.6000   -64.1000   -66.4000   -65.6000   -66.4000   -65.6000   -64.8000   -66.4000   -65.6000   -64.1000   -64.1000   -64.8000   -64.1000   -64.8000   -65.6000   -63.3000   -63.3000   -62.5000   -60.2000   -61.7000   -62.5000   -60.9000   -58.6000   -59.4000   -60.2000   -60.9000   -63.3000   -59.4000   -59.4000   -58.6000   -57.0000   -57.0000   -57.0000   -57.0000   -55.5000   -55.5000   -57.0000   -55.5000   -53.9000   -51.6000   -53.1000   -53.9000   -51.6000   -51.6000   -50.8000   -50.8000   -49.2000   -48.4000   -51.6000   -53.9000   -55.5000   -56.3000   -56.3000   -55.5000   -53.9000   -54.7000   -55.5000   -55.5000   -54.7000   -53.9000   -52.3000   -54.7000   -57.0000   -54.7000   -53.1000   -53.9000   -53.1000   -54.7000   -53.9000   -54.7000   -54.7000   -51.6000   -51.6000   -52.3000   -55.5000   -58.6000   -60.2000   -61.7000   -64.8000   -67.2000   -72.7000   -76.6000   -75.8000   -78.9000   -80.5000   -81.3000   -84.4000   -87.5000   -85.2000   -85.2000   -88.3000   -86.7000   -85.9000   -89.1000   -89.1000   -89.1000   -89.1000   -88.3000   -92.2000   -93.8000   -89.8000   -88.3000   -87.5000   -87.5000   -90.6000   -89.8000   -89.1000   -85.9000   -84.4000   -85.9000   -87.5000   -84.4000   -83.6000   -82.0000   -80.5000   -79.7000   -79.7000   -78.9000   -74.2000   -72.7000   -71.9000   -71.1000   -70.3000   -73.4000   -75.0000   -71.9000   -71.9000   -68.8000   -70.3000   -72.7000   -68.8000   -68.8000   -67.2000   -69.5000   -70.3000   -68.8000   -67.2000   -64.1000   -64.8000   -64.1000   -64.1000   -65.6000   -67.2000   -68.0000   -65.6000   -66.4000   -67.2000   -65.6000   -64.1000   -61.7000   -63.3000   -63.3000   -59.4000   -60.2000   -61.7000   -64.1000   -64.1000   -61.7000   -64.1000   -64.8000   -64.8000   -63.3000   -64.8000   -61.7000   -61.7000   -59.4000   -57.8000   -57.8000   -57.8000   -57.8000   -55.5000   -58.6000   -57.0000   -59.4000   -60.2000   -59.4000   -58.6000   -56.3000   -54.7000   -53.9000   -54.7000   -54.7000   -53.9000   -53.9000   -52.3000   -54.7000   -55.5000   -57.0000   -60.9000   -60.2000   -61.7000   -65.6000   -64.8000   -64.8000   -69.5000   -68.8000   -68.8000   -68.8000   -71.9000   -69.5000   -71.9000   -73.4000   -75.0000   -75.8000   -74.2000   -75.0000   -76.6000   -75.8000   -71.9000   -73.4000   -78.1000   -78.1000   -75.8000   -73.4000   -75.0000   -74.2000   -75.8000   -76.6000   -74.2000   -71.1000   -70.3000   -71.1000   -73.4000   -71.9000   -71.9000   -71.1000   -72.7000   -72.7000   -71.1000   -71.1000   -72.7000   -71.1000   -71.1000   -71.9000   -71.1000   -68.0000   -68.0000   -68.8000   -66.4000   -67.2000   -69.5000   -69.5000   -68.0000   -70.3000   -71.1000   -66.4000   -64.8000   -68.8000   -68.0000   -67.2000   -65.6000   -66.4000   -66.4000   -64.1000   -66.4000   -64.8000   -62.5000   -60.9000   -60.2000   -63.3000   -65.6000   -64.1000   -62.5000   -62.5000   -64.1000   -65.6000   -67.2000   -67.2000   -67.2000   -64.1000   -67.2000   -67.2000   -68.8000   -63.3000   -64.1000   -63.3000   -62.5000   -64.1000   -62.5000   -64.8000   -63.3000   -62.5000   -66.4000   -66.4000   -68.0000   -69.5000   -69.5000   -68.0000   -69.5000   -67.2000   -66.4000   -69.5000   -68.0000   -66.4000   -68.0000   -68.0000   -67.2000   -66.4000   -68.8000   -68.8000   -67.2000   -68.0000   -71.9000   -71.9000   -70.3000   -69.5000   -70.3000   -72.7000   -71.9000   -74.2000   -72.7000   -71.9000   -70.3000   -69.5000   -71.1000   -69.5000   -70.3000   -71.1000   -73.4000   -71.1000   -73.4000   -73.4000   -74.2000   -71.9000   -72.7000   -72.7000   -73.4000   -72.7000   -71.1000   -74.2000   -72.7000   -72.7000   -72.7000   -73.4000   -73.4000   -76.6000   -77.3000   -73.4000   -73.4000   -74.2000   -72.7000   -75.8000   -74.2000   -74.2000   -74.2000   -74.2000   -73.4000   -76.6000   -78.1000   -79.7000   -78.9000   -76.6000   -78.1000   -78.1000   -77.3000   -77.3000   -77.3000   -76.6000   -75.0000   -72.7000   -75.8000   -77.3000   -79.7000   -78.9000   -79.7000   -76.6000   -78.1000   -78.1000   -77.3000   -76.6000   -75.8000   -75.0000   -74.2000   -73.4000   -75.8000   -77.3000   -79.7000   -78.1000   -75.8000   -76.6000   -76.6000   -76.6000   -78.1000   -78.9000   -78.1000   -78.9000   -80.5000   -79.7000   -77.3000   -75.0000   -74.2000   -76.6000   -76.6000   -76.6000   -75.0000   -74.2000   -73.4000   -74.2000   -78.9000   -78.9000   -78.9000   -78.1000   -77.3000   -79.7000   -79.7000   -78.1000   -75.0000   -75.8000   -76.6000   -75.0000   -76.6000   -77.3000   -78.1000   -78.1000   -77.3000   -77.3000   -75.8000   -75.8000   -73.4000   -71.9000   -74.2000   -75.8000   -74.2000   -71.9000   -69.5000   -71.9000   -70.3000   -72.7000   -74.2000   -71.9000   -69.5000   -68.8000   -68.8000   -68.8000   -70.3000   -69.5000   -70.3000   -71.1000   -68.8000   -68.8000   -68.8000   -68.8000   -68.8000   -69.5000   -71.1000   -70.3000   -68.0000   -68.8000   -73.4000   -75.8000   -74.2000   -76.6000   -75.8000   -78.1000   -78.9000   -76.6000   -75.8000   -75.8000   -78.1000   -78.1000   -77.3000   -80.5000   -81.3000   -83.6000   -85.2000   -87.5000   -84.4000   -86.7000   -85.9000   -85.9000   -87.5000   -86.7000   -88.3000   -90.6000   -88.3000   -85.2000   -86.7000   -83.6000   -83.6000   -85.9000   -87.5000   -85.9000   -87.5000   -89.8000   -89.1000   -85.9000   -82.8000   -81.3000   -84.4000   -85.2000   -83.6000   -85.2000   -82.8000   -82.0000   -81.3000   -85.2000   -89.1000   -87.5000   -82.8000   -80.5000   -79.7000   -80.5000   -78.9000   -77.3000   -76.6000   -71.1000   -72.7000   -75.8000   -75.0000   -71.9000   -70.3000   -70.3000   -71.1000   -70.3000   -68.0000   -67.2000   -67.2000   -64.1000   -64.1000   -64.1000   -60.2000   -61.7000   -61.7000   -60.9000   -60.2000   -57.8000   -57.8000   -64.1000   -65.6000   -66.4000   -67.2000   -64.8000   -64.8000   -65.6000   -67.2000   -68.0000   -68.8000   -73.4000   -76.6000   -77.3000   -78.9000   -78.9000   -82.8000   -84.4000   -87.5000   -89.8000   -89.8000   -89.8000   -90.6000   -93.8000   -94.5000   -97.7000   -98.4000   -96.1000   -96.1000   -94.5000  -101.6000  -102.3000   -98.4000   -99.2000   -99.2000   -97.7000   -98.4000   -98.4000   -99.2000   -93.0000   -89.1000   -90.6000   -91.4000   -89.8000   -87.5000   -83.6000   -82.8000   -87.5000   -86.7000   -84.4000   -84.4000   -82.8000   -78.1000   -78.9000   -78.9000   -78.9000   -78.9000   -78.1000   -78.9000   -78.1000   -75.0000   -72.7000   -73.4000   -71.1000   -71.9000   -71.1000   -68.8000   -71.1000   -74.2000   -72.7000   -71.9000   -68.0000   -66.4000   -66.4000   -68.0000   -68.8000   -70.3000   -74.2000   -72.7000   -68.0000   -66.4000   -69.5000   -71.1000   -70.3000   -70.3000   -73.4000   -71.9000   -70.3000   -68.0000   -67.2000   -69.5000   -69.5000   -68.0000   -70.3000   -71.1000   -70.3000   -71.9000   -68.0000   -67.2000   -69.5000   -67.2000   -67.2000   -68.0000   -68.0000   -67.2000   -65.6000   -63.3000   -63.3000   -68.0000   -66.4000   -64.8000   -67.2000   -63.3000   -63.3000   -67.2000   -64.8000   -66.4000   -68.0000   -68.0000   -65.6000   -60.9000   -60.9000   -61.7000   -64.8000   -65.6000   -65.6000   -67.2000   -66.4000   -64.8000   -66.4000   -65.6000   -66.4000   -66.4000   -66.4000   -65.6000   -68.0000   -66.4000   -64.8000   -64.1000   -64.8000   -64.8000   -64.8000   -65.6000   -68.8000   -70.3000   -66.4000   -65.6000   -67.2000   -65.6000   -65.6000   -67.2000   -67.2000   -66.4000   -66.4000   -64.8000   -68.0000   -67.2000   -64.8000   -66.4000   -68.0000   -66.4000   -64.8000   -67.2000   -68.0000   -68.8000   -68.0000   -68.0000   -66.4000   -65.6000   -66.4000   -64.1000   -61.7000   -66.4000   -65.6000   -64.1000   -65.6000   -66.4000   -67.2000   -68.8000   -68.0000   -67.2000   -66.4000   -67.2000   -67.2000   -64.8000   -66.4000   -65.6000   -66.4000   -65.6000   -65.6000   -64.8000   -64.8000   -66.4000   -68.0000   -68.0000   -67.2000   -68.0000   -70.3000   -68.8000   -66.4000   -65.6000   -64.8000   -64.8000   -66.4000   -65.6000   -64.1000   -63.3000   -64.1000   -68.8000   -66.4000   -65.6000   -64.1000   -64.1000   -64.1000   -64.8000   -68.0000   -61.7000   -61.7000   -59.4000   -61.7000   -64.1000   -61.7000   -64.1000   -62.5000   -64.8000   -63.3000   -63.3000   -66.4000   -65.6000   -64.8000   -64.8000   -64.8000   -64.8000   -64.1000   -63.3000   -60.9000   -59.4000   -64.1000   -64.1000   -66.4000   -68.0000   -65.6000   -62.5000   -63.3000   -65.6000   -66.4000   -63.3000   -64.1000   -64.8000   -65.6000   -64.8000   -63.3000   -63.3000   -62.5000   -66.4000   -65.6000   -64.1000   -65.6000   -64.8000   -62.5000   -63.3000   -65.6000   -66.4000   -66.4000   -68.0000   -67.2000   -66.4000   -67.2000   -66.4000   -64.8000   -65.6000   -66.4000   -68.8000   -68.0000   -65.6000   -68.8000   -70.3000   -67.2000   -68.0000   -68.0000   -67.2000   -70.3000   -68.8000   -67.2000   -68.8000   -68.0000   -65.6000   -66.4000   -65.6000   -68.8000   -71.1000   -72.7000   -74.2000   -73.4000   -75.8000   -71.1000   -70.3000   -68.0000   -71.1000   -72.7000   -74.2000   -71.9000   -71.1000   -72.7000   -71.1000   -69.5000   -71.9000   -70.3000   -71.1000   -72.7000   -71.1000   -73.4000   -73.4000   -74.2000   -75.0000   -72.7000   -70.3000   -71.9000   -71.9000   -71.1000   -69.5000   -69.5000   -69.5000   -67.2000   -67.2000   -68.0000   -65.6000   -63.3000   -63.3000   -63.3000   -64.1000   -63.3000   -63.3000   -61.7000   -59.4000   -57.0000   -57.0000   -55.5000   -56.3000   -57.0000   -57.0000   -56.3000   -53.9000   -55.5000   -54.7000   -56.3000   -58.6000   -60.9000   -63.3000   -63.3000   -62.5000   -69.5000   -72.7000   -71.9000   -71.9000   -73.4000   -74.2000   -78.1000   -79.7000   -81.3000   -81.3000   -83.6000   -89.8000   -89.8000   -93.0000   -92.2000   -91.4000   -89.8000   -89.8000   -87.5000   -87.5000   -89.8000   -89.1000   -89.1000   -87.5000   -87.5000   -89.1000   -89.8000   -88.3000   -85.2000   -85.2000   -82.8000   -82.8000   -86.7000   -84.4000   -80.5000   -78.9000   -75.8000   -75.8000   -78.9000   -77.3000   -75.0000   -75.8000   -74.2000   -72.7000   -71.9000   -74.2000   -73.4000   -69.5000   -70.3000   -69.5000   -67.2000   -67.2000   -70.3000   -68.8000   -68.8000   -70.3000   -68.8000   -68.8000   -67.2000   -65.6000   -68.0000   -67.2000   -66.4000   -65.6000   -65.6000   -66.4000   -68.0000   -68.8000   -70.3000   -68.8000   -68.8000   -69.5000   -69.5000   -69.5000   -68.0000   -67.2000   -70.3000   -66.4000   -67.2000   -69.5000   -71.1000   -70.3000   -68.0000   -70.3000   -70.3000   -72.7000   -73.4000   -69.5000   -69.5000   -71.1000   -71.9000   -71.1000   -69.5000   -67.2000   -66.4000   -66.4000   -68.8000   -68.8000   -73.4000   -71.9000   -72.7000   -68.0000   -68.8000   -69.5000   -69.5000   -71.1000   -70.3000   -68.0000   -66.4000   -65.6000   -66.4000   -69.5000   -71.9000   -68.8000   -69.5000   -71.9000   -73.4000   -73.4000   -71.1000   -75.8000   -71.1000   -68.0000   -71.1000   -72.7000   -70.3000   -69.5000   -71.1000   -69.5000   -67.2000   -68.8000   -66.4000   -66.4000   -67.2000   -65.6000   -64.8000   -64.8000   -64.1000   -63.3000   -62.5000   -57.8000   -55.5000   -56.3000   -56.3000   -59.4000   -64.1000   -64.8000   -68.0000   -71.9000   -75.0000   -76.6000   -77.3000   -78.9000   -82.0000   -80.5000   -80.5000   -80.5000   -85.9000   -83.6000   -81.3000   -83.6000   -82.8000   -85.9000   -92.2000   -90.6000   -90.6000   -90.6000   -87.5000   -84.4000   -87.5000   -85.2000   -85.9000   -86.7000   -85.2000   -82.8000   -81.3000   -81.3000   -82.0000   -84.4000   -84.4000   -79.7000   -79.7000   -81.3000   -82.8000   -82.0000   -81.3000   -78.1000   -76.6000   -77.3000   -72.7000   -77.3000   -78.9000   -75.8000   -77.3000   -78.1000   -76.6000   -78.1000   -78.1000   -77.3000   -77.3000   -75.8000   -75.8000   -72.7000   -70.3000   -70.3000   -70.3000   -72.7000   -76.6000   -75.0000   -72.7000   -72.7000   -72.7000   -71.9000   -73.4000   -75.0000   -74.2000   -75.0000   -75.0000   -74.2000   -74.2000   -74.2000   -77.3000   -76.6000   -75.0000   -76.6000   -78.9000   -76.6000   -75.8000   -75.0000   -75.8000   -75.8000   -76.6000   -75.0000   -71.9000   -71.1000   -70.3000   -71.1000   -68.0000   -70.3000   -75.0000   -72.7000   -70.3000   -67.2000   -66.4000   -66.4000   -66.4000   -64.8000   -65.6000   -62.5000   -60.2000   -60.9000   -60.9000   -59.4000   -60.9000   -57.8000   -57.8000   -56.3000   -57.0000   -56.3000   -56.3000   -57.8000   -59.4000   -56.3000   -56.3000   -59.4000   -54.7000   -56.3000   -60.2000   -59.4000   -58.6000   -58.6000   -63.3000   -67.2000   -67.2000   -70.3000   -73.4000   -75.8000   -76.6000   -75.8000   -75.8000   -75.8000   -79.7000   -79.7000   -78.1000   -77.3000   -77.3000   -78.1000   -82.8000   -82.0000   -81.3000   -80.5000   -81.3000   -82.0000   -85.2000   -84.4000   -82.8000   -80.5000   -78.1000   -79.7000   -82.8000   -82.0000   -80.5000   -78.9000   -75.8000   -72.7000   -71.9000   -71.1000   -72.7000   -71.1000   -71.9000   -74.2000   -69.5000   -70.3000   -67.2000   -68.0000   -66.4000   -65.6000   -64.8000   -63.3000   -61.7000   -60.2000   -64.1000   -64.1000   -64.8000   -65.6000   -63.3000   -63.3000   -62.5000   -58.6000   -59.4000   -60.9000   -57.0000   -56.3000   -53.9000   -56.3000   -55.5000   -57.8000   -60.9000   -61.7000   -60.2000   -58.6000   -56.3000   -53.1000   -55.5000   -57.8000   -60.2000   -62.5000   -60.2000   -60.9000   -62.5000   -62.5000   -64.8000   -64.8000   -64.8000   -66.4000   -64.8000   -64.1000   -64.1000   -67.2000   -67.2000   -68.8000   -66.4000   -64.8000   -65.6000   -67.2000   -68.8000   -67.2000   -67.2000   -68.0000   -70.3000   -71.9000   -72.7000   -72.7000   -71.9000   -71.9000   -71.9000   -72.7000   -70.3000   -65.6000   -66.4000   -71.9000   -70.3000   -69.5000   -72.7000   -72.7000   -71.9000   -71.1000   -69.5000   -74.2000   -75.0000   -71.1000   -72.7000   -71.1000   -69.5000   -68.8000   -68.8000   -74.2000   -73.4000   -71.9000   -68.0000   -70.3000   -70.3000   -69.5000   -70.3000   -72.7000   -68.8000   -71.1000   -73.4000   -70.3000   -68.8000   -70.3000   -72.7000   -71.9000   -72.7000   -73.4000   -71.9000   -71.1000   -70.3000   -69.5000   -71.1000   -73.4000   -73.4000   -68.8000   -72.7000   -75.0000   -75.0000   -71.9000   -71.1000   -69.5000   -71.1000   -69.5000   -71.1000   -72.7000   -72.7000   -72.7000   -75.8000   -75.0000   -72.7000   -72.7000   -75.0000   -72.7000   -70.3000   -69.5000   -70.3000   -71.1000   -68.8000   -72.7000   -72.7000   -70.3000   -71.1000   -75.0000   -75.0000   -76.6000   -75.0000   -75.0000   -74.2000   -70.3000   -71.1000   -71.1000   -70.3000   -67.2000   -69.5000   -72.7000   -71.9000   -69.5000   -69.5000   -70.3000   -71.1000   -72.7000   -73.4000   -68.0000   -68.0000   -71.1000   -73.4000   -71.9000   -71.9000   -71.9000   -71.9000   -71.9000   -70.3000   -70.3000   -70.3000   -71.9000   -72.7000   -73.4000   -73.4000   -71.9000   -71.1000   -74.2000   -74.2000   -70.3000   -71.1000   -74.2000   -73.4000   -71.9000   -70.3000   -71.1000   -71.1000   -73.4000   -75.0000   -74.2000   -76.6000   -75.8000   -73.4000   -74.2000   -71.1000   -68.8000   -74.2000   -72.7000   -70.3000   -69.5000   -70.3000   -67.2000   -67.2000   -68.0000   -66.4000   -66.4000   -68.8000   -67.2000   -63.3000   -64.1000   -66.4000   -65.6000   -64.1000   -63.3000   -63.3000   -60.9000   -61.7000   -61.7000   -62.5000   -63.3000   -64.8000   -65.6000   -66.4000   -64.1000   -60.9000   -61.7000   -60.9000   -60.2000   -61.7000   -61.7000   -60.9000   -64.1000   -62.5000   -63.3000   -66.4000   -66.4000   -69.5000   -69.5000   -70.3000   -68.8000   -69.5000   -68.8000   -72.7000   -75.8000   -74.2000   -75.0000   -78.1000   -79.7000   -80.5000   -81.3000   -81.3000   -82.0000   -82.8000   -85.2000   -88.3000   -85.9000   -85.9000   -86.7000   -88.3000   -89.1000   -88.3000   -88.3000   -86.7000   -86.7000   -90.6000   -89.1000   -87.5000   -88.3000   -89.1000   -89.8000   -89.8000   -89.1000   -86.7000   -85.9000   -83.6000   -84.4000   -78.1000   -79.7000   -80.5000   -79.7000   -82.0000   -82.0000   -81.3000   -81.3000   -80.5000   -81.3000   -80.5000   -75.8000   -78.9000   -77.3000   -75.8000   -75.8000   -73.4000   -74.2000   -75.0000   -77.3000   -74.2000   -72.7000   -72.7000   -72.7000   -73.4000   -71.9000   -75.0000   -73.4000   -74.2000   -71.1000   -72.7000   -68.8000   -69.5000   -74.2000   -73.4000   -69.5000   -67.2000   -67.2000   -70.3000   -70.3000   -69.5000   -73.4000   -70.3000   -70.3000   -73.4000   -72.7000   -70.3000   -70.3000   -70.3000   -72.7000   -70.3000   -68.8000   -68.8000   -69.5000   -74.2000   -72.7000   -71.1000   -71.9000   -71.9000   -69.5000   -68.8000   -71.1000   -67.2000   -67.2000   -68.0000   -63.3000   -68.8000   -70.3000   -70.3000   -68.0000   -65.6000   -66.4000   -68.0000   -64.8000   -66.4000   -68.8000   -68.0000   -67.2000   -64.8000   -65.6000   -64.1000   -64.8000   -65.6000   -64.1000   -64.1000   -63.3000   -60.2000   -58.6000   -60.9000   -63.3000   -65.6000   -65.6000   -64.8000   -62.5000   -60.2000   -59.4000   -59.4000   -59.4000   -57.0000   -58.6000   -55.5000   -57.8000   -57.8000   -57.8000   -59.4000   -59.4000   -59.4000   -63.3000   -60.9000   -57.0000   -57.0000   -60.2000   -57.8000   -58.6000   -60.9000   -57.0000   -59.4000   -60.2000   -62.5000   -62.5000   -61.7000   -60.9000   -60.2000   -62.5000   -59.4000   -60.9000   -60.2000   -60.9000   -62.5000   -60.9000   -59.4000   -60.2000   -58.6000   -57.0000   -57.8000   -57.8000   -60.9000   -62.5000   -62.5000   -62.5000   -63.3000   -63.3000   -64.1000   -60.9000   -60.2000   -63.3000   -60.9000   -58.6000   -62.5000   -60.2000   -62.5000   -64.1000   -66.4000   -64.8000   -63.3000   -64.8000   -65.6000   -63.3000   -66.4000   -63.3000   -64.8000   -64.8000   -68.0000   -69.5000   -68.0000   -68.8000   -65.6000   -66.4000   -67.2000   -67.2000   -69.5000   -70.3000   -68.0000   -70.3000   -68.8000   -68.8000   -71.9000   -69.5000   -67.2000   -68.0000   -68.8000   -68.0000   -68.8000   -68.8000   -72.7000   -72.7000   -72.7000   -73.4000   -70.3000   -71.1000   -70.3000   -74.2000   -76.6000   -72.7000   -68.8000   -68.0000   -71.1000   -71.9000   -71.9000   -73.4000   -75.8000   -78.1000   -79.7000   -79.7000   -77.3000   -75.8000   -74.2000   -75.8000   -77.3000   -73.4000   -74.2000   -76.6000   -77.3000   -78.9000   -78.9000   -79.7000   -80.5000   -80.5000   -80.5000   -79.7000   -79.7000   -79.7000   -78.1000   -76.6000   -74.2000   -75.0000   -77.3000   -79.7000   -80.5000   -82.8000   -81.3000   -80.5000   -79.7000   -82.0000   -78.9000   -82.0000   -79.7000   -78.9000   -79.7000   -81.3000   -79.7000   -80.5000   -80.5000   -80.5000   -79.7000   -80.5000   -79.7000   -82.0000   -82.8000   -82.0000   -84.4000   -85.9000   -84.4000   -82.8000   -81.3000   -82.0000   -84.4000   -82.0000   -78.9000   -82.0000   -79.7000   -81.3000   -83.6000   -82.8000   -82.0000   -80.5000   -80.5000   -80.5000   -80.5000   -81.3000   -83.6000   -82.8000   -82.8000   -79.7000   -79.7000   -81.3000   -81.3000   -79.7000   -78.1000   -78.9000   -82.0000   -81.3000   -82.0000   -82.8000   -80.5000   -84.4000   -82.8000   -83.6000   -82.8000   -81.3000   -77.3000   -76.6000   -78.1000   -78.9000   -79.7000   -76.6000   -78.1000   -79.7000   -78.1000   -79.7000   -78.1000   -79.7000   -81.3000   -78.9000   -77.3000   -75.0000   -74.2000   -77.3000   -73.4000   -75.0000   -74.2000   -72.7000   -75.8000   -76.6000   -75.0000   -75.0000   -74.2000   -72.7000   -71.1000   -68.0000   -68.8000   -68.0000   -67.2000   -68.0000   -68.8000   -66.4000   -67.2000   -68.8000   -69.5000   -68.8000   -68.8000   -71.1000   -74.2000   -72.7000   -73.4000   -75.0000   -78.1000   -79.7000   -79.7000   -81.3000   -80.5000   -82.8000   -84.4000   -86.7000   -88.3000   -84.4000   -83.6000   -84.4000   -88.3000   -85.9000   -88.3000   -90.6000   -90.6000   -89.1000   -85.9000   -84.4000   -85.2000   -88.3000   -90.6000   -88.3000   -89.8000   -88.3000   -85.9000   -86.7000   -86.7000   -85.9000   -85.2000   -82.0000   -82.0000   -79.7000   -78.9000   -78.9000   -79.7000   -78.1000   -76.6000   -72.7000   -75.8000   -74.2000   -72.7000   -75.0000   -72.7000   -71.1000   -71.1000   -69.5000   -71.1000   -71.9000   -71.1000   -75.0000   -77.3000   -75.0000   -76.6000   -77.3000   -75.8000   -78.1000   -79.7000   -79.7000   -82.8000   -82.0000   -79.7000   -82.0000   -82.8000   -85.9000   -87.5000   -85.9000   -87.5000   -85.9000   -86.7000   -88.3000   -87.5000   -85.9000   -91.4000   -92.2000   -91.4000   -90.6000   -88.3000   -89.8000   -91.4000   -88.3000   -87.5000   -88.3000   -87.5000   -87.5000   -87.5000   -88.3000   -83.6000   -87.5000   -86.7000   -85.2000   -86.7000   -87.5000   -85.2000   -82.0000   -80.5000   -80.5000   -77.3000   -78.1000   -79.7000   -81.3000   -82.0000   -82.8000   -82.0000   -80.5000   -79.7000   -81.3000   -82.8000   -80.5000   -80.5000   -81.3000   -78.1000   -78.9000   -78.1000   -78.1000   -78.9000   -80.5000   -80.5000   -78.9000   -80.5000   -81.3000   -81.3000   -78.9000   -78.1000   -80.5000   -79.7000   -82.0000   -82.0000   -83.6000   -82.0000   -81.3000   -82.0000   -82.8000   -80.5000   -80.5000   -81.3000   -78.1000   -76.6000   -78.1000   -78.9000   -79.7000   -79.7000   -78.9000   -75.8000   -75.0000   -75.8000   -77.3000   -75.0000   -76.6000   -77.3000   -75.8000   -75.8000   -72.7000   -74.2000   -74.2000   -72.7000   -74.2000   -75.8000   -75.0000   -72.7000   -68.8000   -68.8000   -68.0000   -70.3000   -70.3000   -67.2000   -67.2000   -68.8000   -69.5000   -68.0000   -68.8000   -70.3000   -68.8000   -65.6000   -63.3000   -61.7000   -62.5000   -64.1000   -64.1000   -64.8000   -61.7000   -63.3000   -64.8000   -65.6000   -66.4000   -67.2000   -64.1000   -63.3000   -63.3000   -61.7000   -62.5000   -62.5000   -60.9000   -62.5000   -64.1000   -63.3000   -61.7000   -61.7000   -60.2000   -57.8000   -60.2000   -62.5000   -63.3000   -62.5000   -60.2000   -59.4000   -60.2000   -63.3000   -62.5000   -57.8000   -58.6000   -57.8000   -56.3000   -57.0000   -60.9000   -60.2000   -58.6000   -58.6000   -57.8000   -61.7000   -63.3000   -61.7000   -58.6000   -57.8000   -56.3000   -55.5000   -57.0000   -60.9000   -57.8000   -55.5000   -57.8000   -57.0000   -57.0000   -59.4000   -56.3000   -56.3000   -57.0000   -60.2000   -57.0000   -59.4000   -57.8000   -59.4000   -61.7000   -63.3000   -61.7000   -62.5000   -59.4000   -60.9000   -57.8000   -62.5000   -62.5000   -63.3000   -63.3000   -60.9000   -64.1000   -60.9000   -60.9000   -63.3000   -64.1000   -64.1000   -60.2000   -59.4000   -60.9000   -64.1000   -64.1000   -63.3000   -66.4000   -66.4000   -64.8000   -64.1000   -65.6000   -65.6000   -64.1000   -64.8000   -64.1000   -64.1000   -60.2000   -63.3000   -62.5000   -64.8000   -64.8000   -61.7000   -59.4000   -57.0000   -57.0000   -57.8000   -57.8000   -56.3000   -55.5000   -55.5000   -56.3000   -56.3000   -55.5000   -55.5000   -55.5000   -53.9000   -50.8000   -51.6000   -54.7000   -54.7000   -54.7000   -51.6000   -52.3000   -50.0000   -46.1000   -46.1000   -45.3000   -45.3000   -50.0000   -51.6000   -52.3000   -55.5000   -52.3000   -50.8000   -53.9000   -57.0000   -59.4000   -62.5000   -62.5000   -59.4000   -60.9000   -66.4000   -68.0000   -73.4000   -75.0000   -78.9000   -84.4000   -82.8000   -85.2000   -88.3000   -88.3000   -90.6000   -88.3000   -92.2000   -91.4000   -91.4000   -91.4000   -92.2000   -91.4000   -93.0000   -91.4000   -89.1000   -88.3000   -87.5000   -85.9000   -88.3000   -86.7000   -87.5000   -93.0000   -86.7000   -82.0000   -82.8000   -80.5000   -78.9000   -78.1000   -78.9000   -77.3000   -77.3000   -75.8000   -75.8000   -76.6000   -73.4000   -77.3000   -77.3000   -77.3000   -75.8000   -72.7000   -70.3000   -71.9000   -71.9000   -70.3000   -68.8000   -71.1000   -71.1000   -71.1000   -73.4000   -72.7000   -71.9000   -69.5000   -71.1000   -69.5000   -68.0000   -69.5000   -70.3000   -68.8000   -67.2000   -67.2000   -71.1000   -70.3000   -71.1000   -68.8000   -71.9000   -70.3000   -67.2000   -69.5000   -68.8000   -68.8000   -69.5000   -68.8000   -70.3000   -69.5000   -69.5000   -68.8000   -66.4000   -67.2000   -71.1000   -71.9000   -71.1000   -73.4000   -71.9000   -72.7000   -74.2000   -76.6000   -78.1000   -74.2000   -69.5000   -71.1000   -72.7000   -71.1000   -68.0000   -68.8000   -71.1000   -70.3000   -71.1000   -72.7000   -73.4000   -76.6000   -74.2000   -71.9000   -74.2000   -70.3000   -68.8000   -71.1000   -71.1000   -71.1000   -69.5000   -70.3000   -71.9000   -74.2000   -74.2000   -74.2000   -76.6000   -73.4000   -72.7000   -75.0000   -74.2000   -74.2000   -73.4000   -70.3000   -70.3000   -71.1000   -73.4000   -73.4000   -75.0000   -77.3000   -77.3000   -78.9000   -75.0000   -71.9000   -75.8000   -78.1000   -75.0000   -73.4000   -75.0000   -75.8000   -74.2000   -74.2000   -75.8000   -78.9000   -78.1000   -76.6000   -77.3000   -77.3000   -79.7000   -79.7000   -78.9000   -78.1000   -78.9000   -78.9000   -82.0000   -82.8000   -82.0000   -82.0000   -80.5000   -80.5000   -80.5000   -80.5000   -81.3000   -81.3000   -82.0000   -82.0000   -79.7000   -81.3000   -83.6000   -81.3000   -81.3000   -78.9000   -75.8000   -72.7000   -73.4000   -72.7000   -71.1000   -77.3000   -78.1000   -76.6000   -75.8000   -75.0000   -72.7000   -75.0000   -74.2000   -75.8000   -75.8000   -71.9000   -70.3000   -69.5000   -71.1000   -75.0000   -77.3000   -77.3000   -75.8000   -71.9000   -73.4000   -71.9000   -72.7000   -73.4000   -75.8000   -77.3000   -77.3000   -77.3000   -78.1000   -78.9000   -76.6000   -78.1000   -78.1000   -80.5000   -81.3000   -82.0000   -80.5000   -82.8000   -86.7000   -84.4000   -86.7000   -84.4000   -83.6000   -84.4000   -85.2000   -88.3000   -86.7000   -86.7000   -84.4000   -82.8000   -85.2000   -86.7000   -85.9000   -85.2000   -85.2000   -85.9000   -82.0000   -78.9000   -78.9000   -80.5000   -80.5000   -81.3000   -80.5000   -80.5000   -82.0000   -81.3000   -80.5000   -80.5000   -82.0000   -80.5000   -80.5000   -79.7000   -78.1000   -79.7000   -79.7000   -79.7000   -80.5000   -79.7000   -79.7000   -77.3000   -77.3000   -77.3000   -78.9000   -80.5000   -78.1000   -75.0000   -76.6000   -79.7000   -80.5000   -78.9000   -81.3000   -80.5000   -80.5000   -79.7000   -79.7000   -78.9000   -81.3000   -82.0000   -81.3000   -79.7000   -79.7000   -78.9000   -78.9000   -78.9000   -82.0000   -80.5000   -79.7000   -82.8000   -83.6000   -80.5000   -80.5000   -85.9000   -84.4000   -84.4000   -82.0000   -81.3000   -83.6000   -82.0000   -83.6000   -82.8000   -84.4000   -85.9000   -83.6000   -85.9000   -84.4000   -81.3000   -81.3000   -82.8000   -82.0000   -80.5000   -81.3000   -79.7000   -80.5000   -80.5000   -80.5000   -81.3000   -82.0000   -80.5000   -78.9000   -75.0000   -76.6000   -75.0000   -78.9000   -77.3000   -77.3000   -80.5000   -78.9000   -75.8000   -74.2000   -71.9000   -75.8000   -70.3000   -69.5000   -66.4000   -67.2000   -67.2000   -66.4000   -66.4000   -66.4000   -64.8000   -62.5000   -57.8000   -55.5000   -53.9000   -53.9000   -56.3000   -55.5000   -51.6000   -52.3000   -51.6000   -51.6000   -50.0000   -49.2000   -46.1000   -43.0000   -46.1000   -45.3000   -49.2000   -47.7000   -48.4000   -47.7000   -51.6000   -50.8000   -50.8000   -49.2000   -51.6000   -50.8000   -52.3000   -53.1000   -54.7000   -57.0000   -56.3000   -58.6000   -63.3000   -64.1000   -67.2000   -67.2000   -68.8000   -68.8000   -68.8000   -67.2000   -70.3000   -75.8000   -78.1000   -80.5000   -79.7000   -78.9000   -79.7000   -79.7000   -82.0000   -83.6000   -82.0000   -83.6000   -80.5000   -80.5000   -80.5000   -78.9000   -80.5000   -78.9000   -78.1000   -74.2000   -70.3000   -69.5000   -74.2000   -78.1000   -77.3000   -78.1000   -78.9000   -81.3000   -82.0000   -82.8000   -82.0000   -84.4000   -85.2000   -85.9000   -87.5000   -87.5000   -88.3000   -90.6000   -93.0000   -96.1000   -98.4000   -95.3000   -93.0000   -93.8000   -93.8000   -91.4000   -89.8000   -89.1000   -88.3000   -87.5000   -89.8000   -89.1000   -88.3000   -87.5000   -89.1000   -89.8000   -89.8000   -89.1000   -88.3000   -86.7000   -87.5000   -88.3000   -88.3000   -86.7000   -86.7000   -85.9000   -85.2000   -86.7000   -84.4000   -83.6000   -85.2000   -82.0000   -82.8000   -83.6000   -82.8000   -82.0000   -82.8000   -83.6000   -80.5000   -80.5000   -80.5000   -78.1000   -78.1000   -75.0000   -73.4000   -71.9000   -71.9000   -72.7000   -73.4000   -73.4000   -78.9000   -82.8000   -82.0000   -83.6000   -79.7000   -78.9000   -77.3000   -79.7000   -76.6000   -73.4000   -75.0000   -75.0000   -78.1000   -78.1000   -74.2000   -76.6000   -78.9000   -76.6000   -73.4000   -74.2000   -73.4000   -75.0000   -71.9000   -71.1000   -70.3000   -71.1000   -71.1000   -69.5000   -67.2000   -67.2000   -68.0000   -67.2000   -67.2000   -68.8000   -68.8000   -68.8000   -71.1000   -68.8000   -68.0000   -68.0000   -66.4000   -68.0000   -66.4000   -68.0000   -65.6000   -60.9000   -63.3000   -66.4000   -64.8000   -67.2000   -67.2000   -65.6000   -67.2000   -64.1000   -60.9000   -64.1000   -63.3000   -63.3000   -63.3000   -60.9000   -59.4000   -63.3000   -60.2000   -63.3000   -61.7000   -58.6000   -57.8000   -58.6000   -57.8000   -58.6000   -60.9000   -56.3000   -54.7000   -56.3000   -56.3000   -57.0000   -55.5000   -53.9000   -55.5000   -58.6000   -58.6000   -60.9000   -60.9000   -60.9000   -60.2000   -60.9000   -61.7000   -61.7000   -57.8000   -56.3000   -57.8000   -57.8000   -60.2000   -60.9000   -64.8000   -66.4000   -64.8000   -65.6000   -67.2000   -66.4000   -67.2000   -71.9000   -75.0000   -74.2000   -77.3000   -76.6000   -73.4000   -71.1000   -70.3000   -70.3000   -70.3000   -73.4000   -75.0000   -73.4000   -71.9000   -71.9000   -72.7000   -71.9000   -68.0000   -70.3000   -71.1000   -69.5000   -70.3000   -67.2000   -68.0000   -69.5000   -70.3000   -71.1000   -70.3000   -70.3000   -68.0000   -66.4000   -66.4000   -68.0000   -66.4000   -68.0000   -68.8000   -67.2000   -66.4000   -64.8000   -66.4000   -65.6000   -67.2000   -67.2000   -67.2000   -70.3000   -71.9000   -68.8000   -69.5000   -69.5000   -68.0000   -67.2000   -67.2000   -64.8000   -64.1000   -65.6000   -65.6000   -66.4000   -65.6000   -67.2000   -67.2000   -65.6000   -64.8000   -67.2000   -66.4000   -71.1000   -67.2000   -67.2000   -70.3000   -69.5000   -67.2000   -67.2000   -67.2000   -68.0000   -71.9000   -72.7000   -77.3000   -75.8000   -75.0000   -78.1000   -78.1000   -78.9000   -77.3000   -77.3000   -78.9000   -78.9000   -78.1000   -78.9000   -78.9000   -77.3000   -75.8000   -77.3000   -78.1000   -79.7000   -78.9000   -77.3000   -80.5000   -78.1000   -79.7000   -78.9000   -76.6000   -78.1000   -77.3000   -77.3000   -73.4000   -73.4000   -77.3000   -78.9000   -79.7000   -79.7000   -80.5000   -78.1000   -75.8000   -75.0000   -75.8000   -76.6000   -75.8000   -75.8000   -78.9000   -79.7000   -76.6000   -74.2000   -78.1000   -81.3000   -79.7000   -76.6000   -75.8000   -76.6000   -75.8000   -76.6000   -77.3000   -78.9000   -81.3000   -80.5000   -77.3000   -78.9000   -78.9000   -82.8000   -82.8000   -81.3000   -80.5000   -78.1000   -77.3000   -78.9000   -80.5000   -80.5000   -79.7000   -80.5000   -81.3000   -81.3000   -78.1000   -75.8000   -75.8000   -76.6000   -78.1000   -79.7000   -78.1000   -78.9000   -81.3000   -81.3000   -81.3000   -79.7000   -78.1000   -78.1000   -77.3000   -75.8000   -76.6000   -76.6000   -78.1000   -80.5000   -80.5000   -78.9000   -78.1000   -78.1000   -78.9000   -78.9000   -78.1000   -78.9000   -77.3000   -75.0000   -75.8000   -75.0000   -78.1000   -80.5000   -79.7000   -78.1000   -76.6000   -77.3000   -76.6000   -78.1000   -78.9000   -78.1000   -78.9000   -79.7000   -79.7000   -78.1000   -76.6000   -78.1000   -78.9000   -75.8000   -75.8000   -75.0000   -75.8000   -78.1000   -81.3000   -82.0000   -81.3000   -80.5000   -78.9000   -78.1000   -72.7000   -75.8000   -75.8000   -76.6000   -75.0000   -73.4000   -73.4000   -75.0000   -78.1000   -78.9000   -77.3000   -76.6000   -76.6000   -78.1000   -75.8000   -75.8000   -72.7000   -71.9000   -72.7000   -71.1000   -69.5000   -67.2000   -67.2000   -68.0000   -67.2000   -67.2000   -66.4000   -64.8000   -64.8000   -68.0000   -68.0000   -64.8000   -64.8000   -65.6000   -64.1000   -62.5000   -64.1000   -65.6000   -64.1000   -65.6000   -66.4000   -65.6000   -69.5000   -71.9000   -70.3000   -71.9000   -74.2000   -74.2000   -75.0000   -77.3000   -76.6000   -78.9000   -76.6000   -77.3000   -78.9000   -81.3000   -81.3000   -83.6000   -84.4000   -85.9000   -85.2000   -85.9000   -87.5000   -87.5000   -89.1000   -89.1000   -89.8000   -90.6000   -87.5000   -87.5000   -90.6000   -91.4000   -92.2000   -92.2000   -93.0000   -91.4000   -92.2000   -91.4000   -91.4000   -89.1000   -88.3000   -85.9000   -84.4000   -82.0000   -82.0000   -82.0000   -85.2000   -85.9000   -83.6000   -82.0000   -82.8000   -84.4000   -84.4000   -78.1000   -78.1000   -77.3000   -74.2000   -74.2000   -71.1000   -72.7000   -73.4000   -73.4000   -74.2000   -73.4000   -70.3000   -71.1000   -72.7000   -71.9000   -69.5000   -71.1000   -71.1000   -68.8000   -67.2000   -70.3000   -71.1000   -72.7000   -64.8000   -64.8000   -65.6000   -67.2000   -67.2000   -68.8000   -66.4000   -67.2000   -66.4000   -68.0000   -67.2000   -67.2000   -68.8000   -70.3000   -68.8000   -68.8000   -67.2000   -67.2000   -68.0000   -70.3000   -71.1000   -74.2000   -74.2000   -72.7000   -74.2000   -75.0000   -71.9000   -77.3000   -75.8000   -75.8000   -75.8000   -75.8000   -75.0000   -78.9000   -78.9000   -78.9000   -78.9000   -77.3000   -76.6000   -75.8000   -76.6000   -79.7000   -78.9000   -82.8000   -85.2000   -85.9000   -79.7000   -80.5000   -78.1000   -78.1000   -81.3000   -81.3000   -80.5000   -78.1000   -79.7000   -80.5000   -80.5000   -81.3000   -80.5000   -80.5000   -78.9000   -77.3000   -74.2000   -73.4000   -71.9000   -74.2000   -76.6000   -75.8000   -71.9000   -71.1000   -72.7000   -72.7000   -69.5000   -68.8000   -68.8000   -69.5000   -72.7000   -68.0000   -67.2000   -65.6000   -65.6000   -68.8000   -67.2000   -70.3000   -65.6000   -63.3000   -63.3000   -64.8000   -65.6000   -67.2000   -68.8000   -68.0000   -65.6000   -64.1000   -64.8000   -66.4000   -65.6000   -64.8000   -63.3000   -61.7000   -60.2000   -64.1000   -68.8000   -71.1000   -67.2000   -68.8000   -67.2000   -66.4000   -64.8000   -65.6000   -64.8000   -63.3000   -66.4000   -68.0000   -69.5000   -69.5000   -68.0000   -68.8000   -70.3000   -68.0000   -68.0000   -66.4000   -64.8000   -66.4000   -64.8000   -64.8000   -68.0000   -67.2000   -67.2000   -64.1000   -66.4000   -67.2000   -67.2000   -68.0000   -66.4000   -66.4000   -64.8000   -65.6000   -69.5000   -70.3000   -68.0000   -67.2000   -67.2000   -64.8000   -63.3000   -64.8000   -67.2000   -66.4000   -68.0000   -68.8000   -67.2000   -65.6000   -69.5000   -70.3000   -70.3000   -66.4000   -65.6000   -64.8000   -67.2000   -68.0000   -68.8000   -68.8000   -71.9000   -72.7000   -70.3000   -67.2000   -68.0000   -68.8000   -71.9000   -71.9000   -72.7000   -70.3000   -68.8000   -68.8000   -70.3000   -71.1000   -71.1000   -72.7000   -71.9000   -71.9000   -70.3000   -69.5000   -70.3000   -72.7000   -74.2000   -71.9000   -75.0000   -72.7000   -72.7000   -73.4000   -72.7000   -72.7000   -70.3000   -70.3000   -69.5000   -69.5000   -73.4000   -73.4000   -74.2000   -72.7000   -76.6000   -75.0000   -73.4000   -73.4000   -74.2000   -71.9000   -71.1000   -72.7000   -74.2000   -69.5000   -72.7000   -76.6000   -74.2000   -76.6000   -76.6000   -79.7000   -74.2000   -71.9000   -71.9000   -73.4000   -75.0000   -72.7000   -74.2000   -75.8000   -72.7000   -71.1000   -73.4000   -74.2000   -71.9000   -75.0000   -75.0000   -75.0000   -74.2000   -75.8000   -75.0000   -73.4000   -75.0000   -71.9000   -71.1000   -71.9000   -71.1000   -73.4000   -72.7000   -70.3000   -70.3000   -69.5000   -69.5000   -70.3000   -74.2000   -75.8000   -71.9000   -68.8000   -69.5000   -68.0000   -69.5000   -68.8000   -66.4000   -66.4000   -68.8000   -69.5000   -68.0000   -68.0000   -69.5000   -73.4000   -72.7000   -71.9000   -67.2000   -71.1000   -74.2000   -74.2000   -75.0000   -71.1000   -71.9000   -71.9000   -72.7000   -72.7000   -75.0000   -73.4000   -72.7000   -78.1000   -77.3000   -75.8000   -75.0000   -75.0000   -73.4000   -75.0000   -78.1000   -79.7000   -75.8000   -75.0000   -76.6000   -75.8000   -77.3000   -78.9000   -78.1000   -77.3000   -78.9000   -80.5000   -80.5000   -80.5000   -83.6000   -82.8000   -81.3000   -78.1000   -75.8000   -76.6000   -77.3000   -79.7000   -80.5000   -78.1000   -75.0000   -76.6000   -78.9000   -78.1000   -78.1000   -78.9000   -78.1000   -75.8000   -73.4000   -71.9000   -73.4000   -74.2000   -73.4000   -75.0000   -73.4000   -72.7000   -75.0000   -76.6000   -77.3000   -74.2000   -71.1000   -70.3000   -70.3000   -71.1000   -71.1000   -70.3000   -70.3000   -71.1000   -68.0000   -69.5000   -70.3000   -72.7000   -74.2000   -76.6000   -80.5000   -75.8000   -76.6000   -78.9000   -81.3000   -82.0000   -83.6000   -83.6000   -82.8000   -84.4000   -84.4000   -82.0000   -86.7000   -89.1000   -89.8000   -87.5000   -87.5000   -89.1000   -93.0000   -93.0000   -91.4000   -88.3000   -85.9000   -88.3000   -88.3000   -87.5000   -88.3000   -88.3000   -89.1000   -93.0000   -89.8000   -89.1000   -89.8000   -89.8000   -93.0000   -90.6000   -89.1000   -87.5000   -85.9000   -85.9000   -87.5000   -88.3000   -86.7000   -83.6000   -86.7000   -83.6000   -83.6000   -86.7000   -85.9000   -84.4000   -85.2000   -84.4000   -83.6000   -80.5000   -78.9000   -82.0000   -82.0000   -82.0000   -78.9000   -78.1000   -80.5000   -80.5000   -80.5000   -82.0000   -82.0000   -79.7000   -78.9000   -78.1000   -79.7000   -78.9000   -78.1000   -78.9000   -78.1000   -78.1000   -76.6000   -75.8000   -75.8000   -76.6000   -76.6000   -78.9000   -79.7000   -77.3000   -72.7000   -70.3000   -73.4000   -75.0000   -71.1000   -69.5000   -67.2000   -66.4000   -67.2000   -67.2000   -66.4000   -68.0000   -68.0000   -68.8000   -68.0000   -66.4000   -67.2000   -64.1000   -64.8000   -63.3000   -64.1000   -60.9000   -60.2000   -57.0000   -56.3000   -58.6000   -57.0000   -57.0000   -59.4000   -55.5000   -53.9000   -51.6000   -50.0000   -48.4000   -47.7000   -45.3000   -49.2000   -49.2000   -50.8000   -53.1000   -51.6000   -53.9000   -54.7000   -57.0000   -61.7000   -61.7000   -66.4000   -69.5000   -71.9000   -71.9000   -71.9000   -72.7000   -75.0000   -77.3000   -75.8000   -75.8000   -75.0000   -74.2000   -78.1000   -78.9000   -81.3000   -82.8000   -80.5000   -79.7000   -79.7000   -80.5000   -82.0000   -79.7000   -75.8000   -73.4000   -71.1000   -69.5000   -69.5000   -71.9000   -69.5000   -71.9000   -68.8000   -64.8000   -64.1000   -65.6000   -63.3000   -63.3000   -62.5000   -56.3000   -53.1000   -52.3000   -57.0000   -57.0000   -54.7000   -56.3000   -54.7000   -52.3000   -53.9000   -51.6000   -50.0000   -49.2000   -47.7000   -48.4000   -46.9000   -48.4000   -48.4000   -45.3000   -46.9000   -47.7000   -43.0000   -43.0000   -40.6000   -41.4000   -43.0000   -44.5000   -46.9000   -46.9000   -44.5000   -43.8000   -44.5000   -43.0000   -42.2000   -43.8000   -44.5000   -43.8000   -43.8000   -43.8000   -45.3000   -46.9000   -47.7000   -51.6000   -56.3000   -54.7000   -53.9000   -56.3000   -60.2000   -61.7000   -63.3000   -63.3000   -61.7000   -60.2000   -66.4000   -69.5000   -68.8000   -68.8000   -70.3000   -71.1000   -70.3000   -68.8000   -70.3000   -70.3000   -70.3000   -68.8000   -66.4000   -67.2000   -70.3000   -71.1000   -70.3000   -71.1000   -71.1000   -69.5000   -71.1000   -73.4000   -73.4000   -74.2000   -70.3000   -68.8000   -68.0000   -68.0000   -69.5000   -71.1000   -69.5000   -69.5000   -69.5000   -70.3000   -70.3000   -70.3000   -71.1000   -68.8000   -67.2000   -68.0000   -67.2000   -67.2000   -68.0000   -70.3000   -68.0000   -64.8000   -67.2000   -68.0000   -68.0000   -68.0000   -70.3000   -66.4000   -66.4000   -68.0000   -62.5000   -65.6000   -68.0000   -68.0000   -70.3000   -64.8000   -64.8000   -64.8000   -65.6000   -65.6000   -65.6000   -66.4000   -63.3000   -64.1000   -65.6000   -67.2000   -67.2000   -68.0000   -69.5000   -68.0000   -65.6000   -64.8000   -67.2000   -65.6000   -64.8000   -64.8000   -66.4000   -68.8000   -69.5000   -71.9000   -71.9000   -75.0000   -77.3000   -75.0000   -71.1000   -72.7000   -71.9000   -71.9000   -68.8000   -69.5000   -68.8000   -69.5000   -69.5000   -70.3000   -69.5000   -68.0000   -69.5000   -71.1000   -71.1000   -71.9000   -72.7000   -71.1000   -68.8000   -67.2000   -67.2000   -67.2000   -66.4000   -64.8000   -66.4000   -67.2000   -69.5000   -68.8000   -67.2000   -67.2000   -70.3000   -68.8000   -69.5000   -68.0000   -67.2000   -66.4000   -66.4000   -68.8000   -71.1000   -70.3000   -70.3000   -68.0000   -66.4000   -68.8000   -65.6000   -65.6000   -67.2000   -68.8000   -71.9000   -71.1000   -71.9000   -70.3000   -66.4000   -67.2000   -68.8000   -70.3000   -70.3000   -71.9000   -68.8000   -68.8000   -70.3000   -73.4000   -72.7000   -70.3000   -69.5000   -69.5000   -68.8000   -73.4000   -74.2000   -71.1000   -69.5000   -68.8000   -70.3000   -72.7000   -73.4000   -71.1000   -71.1000   -72.7000   -71.9000   -78.1000   -77.3000   -75.8000   -75.8000   -75.8000   -75.8000   -72.7000   -75.8000   -76.6000   -71.9000   -74.2000   -71.9000   -73.4000   -77.3000   -78.9000   -75.8000   -78.1000   -78.1000   -74.2000   -72.7000   -75.0000   -74.2000   -74.2000   -72.7000   -71.9000   -75.8000   -75.8000   -75.0000   -76.6000   -75.8000   -75.0000   -75.0000   -74.2000   -71.9000   -75.0000   -72.7000   -69.5000   -71.9000   -71.9000   -69.5000   -69.5000   -71.9000   -75.0000   -71.9000   -71.1000   -71.1000   -70.3000   -71.1000   -73.4000   -75.8000   -75.8000   -74.2000   -71.1000   -72.7000   -76.6000   -75.0000   -76.6000   -76.6000   -75.8000   -75.0000   -75.0000   -75.0000   -77.3000   -80.5000   -82.0000   -83.6000   -83.6000   -81.3000   -81.3000   -81.3000   -82.0000   -82.8000   -82.8000   -81.3000   -79.7000   -82.8000   -86.7000   -87.5000   -88.3000   -88.3000   -87.5000   -89.1000   -89.1000   -89.1000   -86.7000   -85.2000   -84.4000   -84.4000   -86.7000   -89.8000   -89.8000   -87.5000   -85.9000   -85.2000   -85.2000   -86.7000   -87.5000   -89.1000   -92.2000   -91.4000   -90.6000   -89.1000   -87.5000   -87.5000   -86.7000   -86.7000   -89.1000   -90.6000   -89.8000   -89.8000   -89.8000   -90.6000   -89.1000   -86.7000   -86.7000   -85.9000   -87.5000   -86.7000   -82.0000   -79.7000   -84.4000   -85.2000   -85.2000   -83.6000   -83.6000   -82.8000   -84.4000   -85.9000   -84.4000   -83.6000   -84.4000   -85.9000   -84.4000   -80.5000   -78.9000   -82.0000   -82.0000   -78.9000   -78.1000   -75.0000   -76.6000   -77.3000   -77.3000   -78.1000   -77.3000   -75.8000   -71.1000   -74.2000   -72.7000   -74.2000   -70.3000   -66.4000   -65.6000   -65.6000   -64.1000   -61.7000   -64.1000   -64.8000   -64.8000   -59.4000   -57.0000   -57.8000   -56.3000   -57.0000   -56.3000   -57.0000   -54.7000   -54.7000   -54.7000   -57.0000   -60.2000   -61.7000   -60.2000   -64.8000   -66.4000   -65.6000   -68.8000   -71.1000   -74.2000   -71.9000   -75.0000   -77.3000   -78.9000   -81.3000   -84.4000   -85.2000   -83.6000   -84.4000   -86.7000   -87.5000   -90.6000   -89.8000   -89.8000   -89.1000   -90.6000   -89.8000   -89.8000   -92.2000   -92.2000   -92.2000   -89.8000   -88.3000   -89.8000   -89.8000   -92.2000   -91.4000   -89.8000   -88.3000   -88.3000   -90.6000   -92.2000   -92.2000   -92.2000   -91.4000   -87.5000   -83.6000   -84.4000   -85.2000   -85.2000   -85.2000   -80.5000   -77.3000   -78.9000   -82.8000   -82.8000   -82.0000   -81.3000   -78.9000   -81.3000   -79.7000   -76.6000   -76.6000   -78.1000   -74.2000   -73.4000   -75.8000   -76.6000   -77.3000   -75.8000   -75.0000   -76.6000   -74.2000   -75.0000   -75.8000   -75.8000   -75.8000   -78.1000   -79.7000   -79.7000   -77.3000   -79.7000   -82.0000   -82.8000   -81.3000   -82.0000   -82.8000   -84.4000   -83.6000   -84.4000   -82.0000   -82.0000   -84.4000   -86.7000   -83.6000   -80.5000   -83.6000   -83.6000   -85.9000   -85.2000   -85.9000   -86.7000   -80.5000   -82.8000   -82.8000   -81.3000   -82.0000   -84.4000   -83.6000   -80.5000   -79.7000   -79.7000   -77.3000   -78.9000   -79.7000   -78.1000   -76.6000   -72.7000   -75.8000   -76.6000   -76.6000   -76.6000   -76.6000   -74.2000   -75.0000   -72.7000   -70.3000   -69.5000   -71.9000   -72.7000   -70.3000   -70.3000   -70.3000   -66.4000   -65.6000   -66.4000   -69.5000   -67.2000   -66.4000   -66.4000   -65.6000   -64.1000   -68.0000   -65.6000   -65.6000   -65.6000   -65.6000   -63.3000   -61.7000   -64.1000   -63.3000   -60.9000   -62.5000   -63.3000   -62.5000   -61.7000   -60.2000   -60.2000   -59.4000   -56.3000   -57.8000   -57.0000   -56.3000   -59.4000   -61.7000   -60.9000   -63.3000   -58.6000   -57.8000   -55.5000   -57.0000   -56.3000   -53.9000   -55.5000   -55.5000   -53.9000   -52.3000   -52.3000   -54.7000   -53.9000   -53.9000   -53.1000   -50.8000   -47.7000   -46.1000   -47.7000   -46.9000   -48.4000   -49.2000   -48.4000   -46.1000   -48.4000   -46.1000   -44.5000   -47.7000   -46.9000   -50.8000   -52.3000   -53.1000   -52.3000   -50.8000   -51.6000   -53.1000   -55.5000   -53.9000   -49.2000   -47.7000   -47.7000   -50.8000   -52.3000   -51.6000   -51.6000   -53.1000   -53.9000   -54.7000   -56.3000   -56.3000   -59.4000   -60.9000   -61.7000   -60.2000   -62.5000   -63.3000   -64.1000   -67.2000   -67.2000   -67.2000   -68.0000   -70.3000   -74.2000   -70.3000   -68.8000   -68.8000   -69.5000   -71.1000   -69.5000   -71.1000   -71.1000   -68.8000   -72.7000   -72.7000   -71.1000   -69.5000   -70.3000   -70.3000   -69.5000   -68.8000   -70.3000   -71.1000   -68.0000   -65.6000   -66.4000   -65.6000   -66.4000   -66.4000   -64.1000   -63.3000   -63.3000   -60.2000   -60.2000   -62.5000   -64.1000   -64.1000   -61.7000   -61.7000   -60.2000   -62.5000   -61.7000   -60.2000   -60.9000   -61.7000   -58.6000   -57.0000   -60.2000   -58.6000   -62.5000   -61.7000   -61.7000   -63.3000   -61.7000   -62.5000   -62.5000   -60.2000   -62.5000   -64.8000   -60.2000   -60.2000   -60.9000   -60.9000   -61.7000   -62.5000   -59.4000   -61.7000   -66.4000   -68.0000   -66.4000   -65.6000   -68.8000   -70.3000   -71.1000   -72.7000   -72.7000   -72.7000   -71.9000   -75.8000   -78.1000   -79.7000   -81.3000   -80.5000   -80.5000   -82.0000   -84.4000   -85.9000   -85.9000   -86.7000   -84.4000   -83.6000   -82.0000   -85.2000   -84.4000   -82.0000   -82.8000   -84.4000   -85.9000   -89.1000   -89.8000   -89.8000   -88.3000   -88.3000   -89.8000   -87.5000   -85.9000   -89.1000   -89.1000   -88.3000   -83.6000   -83.6000   -85.2000   -85.9000   -87.5000   -90.6000   -88.3000   -84.4000   -85.9000   -83.6000   -81.3000   -81.3000   -82.0000   -81.3000   -78.9000   -78.9000   -76.6000   -77.3000   -78.9000   -80.5000   -76.6000   -75.8000   -75.0000   -71.1000   -71.1000   -73.4000   -75.0000   -72.7000   -72.7000   -69.5000   -67.2000   -64.8000   -64.1000   -65.6000   -62.5000   -60.9000   -60.9000   -59.4000   -60.2000   -58.6000   -57.8000   -58.6000   -57.0000   -56.3000   -56.3000   -58.6000   -57.8000   -59.4000   -62.5000   -59.4000   -57.8000   -57.8000   -53.1000   -52.3000   -50.0000   -48.4000   -51.6000   -51.6000   -50.8000   -52.3000   -54.7000   -56.3000   -59.4000   -63.3000   -65.6000   -64.8000   -64.1000   -66.4000   -66.4000   -68.8000   -72.7000   -75.0000   -74.2000   -79.7000   -81.3000   -80.5000   -79.7000   -78.1000   -78.1000   -81.3000   -82.0000   -83.6000   -82.8000   -83.6000   -83.6000   -80.5000   -81.3000   -81.3000   -79.7000   -77.3000   -77.3000   -77.3000   -74.2000   -74.2000   -73.4000   -71.9000   -71.9000   -67.2000   -67.2000   -68.8000   -67.2000   -66.4000   -66.4000   -64.8000   -62.5000   -62.5000   -62.5000   -60.9000   -60.2000   -62.5000   -62.5000   -60.2000   -60.2000   -60.2000   -57.0000   -57.0000   -58.6000   -59.4000   -59.4000   -59.4000   -56.3000   -57.0000   -56.3000   -57.0000   -60.9000   -59.4000   -60.2000   -60.9000   -58.6000   -58.6000   -56.3000   -55.5000   -54.7000   -62.5000   -68.0000   -69.5000   -70.3000   -70.3000   -68.0000   -64.8000   -61.7000   -64.8000   -64.8000   -63.3000   -65.6000   -64.8000   -66.4000   -66.4000   -63.3000   -66.4000   -68.0000   -65.6000   -66.4000   -67.2000   -66.4000   -68.8000   -68.0000   -68.0000   -64.8000   -67.2000   -71.1000   -71.1000   -71.9000   -70.3000   -69.5000   -69.5000   -73.4000   -75.8000   -77.3000   -78.9000   -78.9000   -78.9000   -79.7000   -82.0000   -86.7000   -85.2000   -86.7000   -85.9000   -84.4000   -88.3000   -93.0000   -96.1000   -96.1000   -96.1000   -95.3000   -95.3000   -95.3000   -93.8000   -94.5000   -95.3000   -96.9000   -96.1000   -94.5000   -93.8000   -94.5000   -96.9000   -96.9000   -96.9000   -96.1000   -93.8000   -93.8000   -94.5000   -93.8000   -92.2000   -92.2000   -92.2000   -90.6000   -91.4000   -90.6000   -88.3000   -89.8000   -86.7000   -83.6000   -83.6000   -82.8000   -84.4000   -83.6000   -82.8000   -83.6000   -82.8000   -81.3000   -77.3000   -79.7000   -81.3000   -81.3000   -80.5000   -79.7000   -78.1000   -77.3000   -78.1000   -75.8000   -76.6000   -78.9000   -78.9000   -77.3000   -77.3000   -77.3000   -78.1000   -76.6000   -75.8000   -75.0000   -74.2000   -71.9000   -71.9000   -74.2000   -73.4000   -78.1000   -80.5000   -75.0000   -73.4000   -75.8000   -74.2000   -72.7000   -73.4000   -75.0000   -74.2000   -71.9000   -73.4000   -74.2000   -73.4000   -75.0000   -76.6000   -75.8000   -75.0000   -75.8000   -71.9000   -74.2000   -76.6000   -75.0000   -73.4000   -73.4000   -71.9000   -71.1000   -76.6000   -75.8000   -74.2000   -72.7000   -74.2000   -72.7000   -74.2000   -77.3000   -75.0000   -75.0000   -77.3000   -76.6000   -74.2000   -71.9000   -71.1000   -75.0000   -76.6000   -76.6000   -75.0000   -74.2000   -76.6000   -75.8000   -75.8000   -76.6000   -75.8000   -77.3000   -76.6000   -74.2000   -72.7000   -78.1000   -76.6000   -78.1000   -75.8000   -71.9000   -75.0000   -75.8000   -76.6000   -78.1000   -77.3000   -73.4000   -76.6000   -76.6000   -78.1000   -79.7000   -78.1000   -76.6000   -76.6000   -74.2000   -72.7000   -73.4000   -75.0000   -74.2000   -74.2000   -75.0000   -75.0000   -75.8000   -75.8000   -75.8000   -75.8000   -73.4000   -71.1000   -71.1000   -72.7000   -73.4000   -73.4000   -76.6000   -75.8000   -75.0000   -76.6000   -73.4000   -75.0000   -71.9000   -71.9000   -71.1000   -68.8000   -68.8000   -69.5000   -69.5000   -68.8000   -70.3000   -66.4000   -64.1000   -64.8000   -67.2000   -65.6000   -65.6000   -68.8000   -68.8000   -68.8000   -68.8000   -70.3000   -71.1000   -70.3000   -68.8000   -68.8000   -68.0000   -67.2000   -64.8000   -68.0000   -67.2000   -66.4000   -67.2000   -67.2000   -70.3000   -69.5000   -66.4000   -66.4000   -68.0000   -68.8000   -68.8000   -64.1000   -63.3000   -64.8000   -65.6000   -67.2000   -68.0000   -67.2000   -66.4000   -68.0000   -71.1000   -71.9000   -69.5000   -64.8000   -68.0000   -70.3000   -70.3000   -73.4000   -68.8000   -69.5000   -73.4000   -74.2000   -71.9000   -72.7000   -71.9000   -72.7000   -73.4000   -73.4000   -73.4000   -71.9000   -70.3000   -72.7000   -71.1000   -71.9000   -73.4000   -71.1000   -68.8000   -68.8000   -66.4000   -63.3000   -67.2000   -66.4000   -65.6000   -64.8000   -62.5000   -63.3000   -61.7000   -60.2000   -62.5000   -63.3000   -60.2000   -58.6000   -60.2000   -59.4000   -57.0000   -57.0000   -56.3000   -56.3000   -57.0000   -55.5000   -54.7000   -51.6000   -50.0000   -52.3000   -54.7000   -53.9000   -54.7000   -51.6000   -54.7000   -55.5000   -57.8000   -59.4000   -62.5000   -64.8000   -65.6000   -68.0000   -70.3000   -72.7000   -76.6000   -77.3000   -79.7000   -82.0000   -82.8000   -80.5000   -84.4000   -81.3000   -82.0000   -82.8000   -79.7000   -80.5000   -81.3000   -79.7000   -84.4000   -80.5000   -78.9000   -80.5000   -78.1000   -77.3000   -78.1000   -76.6000   -75.0000   -71.9000   -68.8000   -68.8000   -66.4000   -65.6000   -63.3000   -61.7000   -63.3000   -60.2000   -57.0000   -55.5000   -55.5000   -54.7000   -50.8000   -49.2000   -49.2000   -50.8000   -50.0000   -51.6000   -50.8000   -49.2000   -46.9000   -46.9000   -47.7000   -48.4000   -47.7000   -50.8000   -50.8000   -50.8000   -52.3000   -53.1000   -54.7000   -54.7000   -57.0000   -59.4000   -59.4000   -58.6000   -57.0000   -59.4000   -62.5000   -64.1000   -65.6000   -65.6000   -62.5000   -63.3000   -64.1000   -66.4000   -68.0000   -69.5000   -68.8000   -68.8000   -69.5000   -69.5000   -70.3000   -73.4000   -75.8000   -76.6000   -74.2000   -75.0000   -73.4000   -73.4000   -77.3000   -78.1000   -73.4000   -74.2000   -75.8000   -71.9000   -71.9000   -77.3000   -78.1000   -78.9000   -76.6000   -74.2000   -74.2000   -70.3000   -71.1000   -72.7000   -74.2000   -71.1000   -73.4000   -71.1000   -74.2000   -74.2000   -74.2000   -70.3000   -71.9000   -75.8000   -71.9000   -71.1000   -70.3000   -71.1000   -72.7000   -71.9000   -71.1000   -69.5000   -68.8000   -67.2000   -64.8000   -67.2000   -67.2000   -67.2000   -66.4000   -64.8000   -65.6000   -66.4000   -67.2000   -67.2000   -68.0000   -66.4000   -65.6000   -65.6000   -66.4000   -66.4000   -68.0000   -71.1000   -70.3000   -71.9000   -70.3000   -68.8000   -69.5000   -71.1000   -72.7000   -73.4000   -69.5000   -69.5000   -67.2000   -68.0000   -68.0000   -68.8000   -71.9000   -71.1000   -69.5000   -70.3000   -68.8000   -71.1000   -71.9000   -66.4000   -69.5000   -69.5000   -70.3000   -69.5000   -69.5000   -67.2000   -68.0000   -68.8000   -67.2000   -69.5000   -65.6000   -66.4000   -67.2000   -67.2000   -67.2000   -65.6000   -65.6000   -65.6000   -68.8000   -71.9000   -71.9000   -68.8000   -69.5000   -68.0000   -66.4000   -68.8000   -68.0000   -69.5000   -68.8000   -69.5000   -71.1000   -68.8000   -71.1000   -73.4000   -71.9000   -68.0000   -69.5000   -68.8000   -68.0000   -69.5000   -69.5000   -68.8000   -71.1000   -71.9000   -71.1000   -71.9000   -71.9000   -75.0000   -77.3000   -73.4000   -71.9000   -69.5000   -70.3000   -71.1000   -70.3000   -70.3000   -75.8000   -76.6000   -76.6000   -75.8000   -74.2000   -75.0000   -78.9000   -75.0000   -75.8000   -75.8000   -76.6000   -75.8000   -75.0000   -76.6000   -75.8000   -74.2000   -71.9000   -74.2000   -75.0000   -75.0000   -77.3000   -76.6000   -77.3000   -77.3000   -76.6000   -76.6000   -75.8000   -75.0000   -73.4000   -75.8000   -75.0000   -74.2000   -72.7000   -70.3000   -72.7000   -76.6000   -75.0000   -75.8000   -74.2000   -71.1000   -70.3000   -71.9000   -73.4000   -72.7000   -70.3000   -69.5000   -67.2000   -68.0000   -68.8000   -68.0000   -72.7000   -76.6000   -71.1000   -68.8000   -68.8000   -68.0000   -69.5000   -69.5000   -70.3000   -71.1000   -73.4000   -71.1000   -68.8000   -69.5000   -71.1000   -75.8000   -75.0000   -72.7000   -71.1000   -70.3000   -71.1000   -69.5000   -71.9000   -72.7000   -72.7000   -69.5000   -72.7000   -71.1000   -71.9000   -73.4000   -72.7000   -71.1000   -70.3000   -68.8000   -67.2000   -72.7000   -76.6000   -75.0000   -72.7000   -71.1000   -68.0000   -68.8000   -68.0000   -68.8000   -66.4000   -66.4000   -68.0000   -71.9000   -68.0000   -70.3000   -71.1000   -71.9000   -71.9000   -68.8000   -67.2000   -66.4000   -65.6000   -65.6000   -66.4000   -65.6000   -63.3000   -64.8000   -63.3000   -62.5000   -61.7000   -66.4000   -65.6000   -61.7000   -60.9000   -60.9000   -60.2000   -60.9000   -60.9000   -59.4000   -65.6000   -64.8000   -63.3000   -65.6000   -65.6000   -68.8000   -73.4000   -74.2000   -78.1000   -79.7000   -82.0000   -85.2000   -87.5000   -87.5000   -88.3000   -89.1000   -89.8000   -91.4000   -93.0000   -93.8000   -93.8000   -96.1000   -96.9000   -99.2000   -96.9000   -95.3000   -94.5000   -93.0000   -93.8000   -93.0000   -95.3000   -92.2000   -90.6000   -92.2000   -93.0000   -91.4000   -89.8000   -91.4000   -88.3000   -87.5000   -86.7000   -82.8000   -82.8000   -82.0000   -82.8000   -81.3000   -79.7000   -78.1000   -76.6000   -76.6000   -78.1000   -77.3000   -76.6000   -74.2000   -74.2000   -74.2000   -76.6000   -74.2000   -73.4000   -72.7000   -75.8000   -73.4000   -69.5000   -71.1000   -71.1000   -70.3000   -69.5000   -71.1000   -68.0000   -68.8000   -71.1000   -71.1000   -72.7000   -73.4000   -73.4000   -74.2000   -75.8000   -76.6000   -77.3000   -78.9000   -77.3000   -75.8000   -78.1000   -80.5000   -81.3000   -82.0000   -82.0000   -82.0000   -81.3000   -81.3000   -82.8000   -82.8000   -81.3000   -82.8000   -82.0000   -82.8000   -81.3000   -81.3000   -82.0000   -84.4000   -85.9000   -85.2000   -82.0000   -85.9000   -85.2000   -84.4000   -86.7000   -86.7000   -83.6000   -86.7000   -85.9000   -85.2000   -82.0000   -83.6000   -84.4000   -85.9000   -83.6000   -82.0000   -82.0000   -82.0000   -83.6000   -85.9000   -86.7000   -86.7000   -84.4000   -84.4000   -83.6000   -84.4000   -85.9000   -83.6000   -82.8000   -82.0000   -79.7000   -81.3000   -82.0000   -80.5000   -82.8000   -82.8000   -85.2000   -85.2000   -82.0000   -82.8000   -83.6000   -81.3000   -79.7000   -78.1000   -78.9000   -78.9000   -78.1000   -78.9000   -82.0000   -81.3000   -80.5000   -78.9000   -81.3000   -78.9000   -78.9000   -77.3000   -78.1000   -75.8000   -75.0000   -75.0000   -74.2000   -74.2000   -75.8000   -74.2000   -73.4000   -78.1000   -77.3000   -75.0000   -72.7000   -71.1000   -71.9000   -70.3000   -70.3000   -69.5000   -69.5000   -70.3000   -71.1000   -69.5000   -67.2000   -67.2000   -65.6000   -67.2000   -67.2000   -68.0000   -69.5000   -67.2000   -63.3000   -65.6000   -67.2000   -66.4000   -67.2000   -64.1000   -63.3000   -63.3000   -63.3000   -64.8000   -65.6000   -66.4000   -63.3000   -63.3000   -64.8000   -68.0000   -64.8000   -64.1000   -64.8000   -63.3000   -61.7000   -61.7000   -59.4000   -60.9000   -63.3000   -64.8000   -65.6000   -66.4000   -65.6000   -63.3000   -64.1000   -68.0000   -67.2000   -65.6000   -63.3000   -63.3000   -61.7000   -61.7000   -62.5000   -64.1000   -64.8000   -67.2000   -68.0000   -68.0000   -68.0000   -66.4000   -64.1000   -64.1000   -66.4000   -66.4000   -65.6000   -64.8000   -65.6000   -64.8000   -65.6000   -66.4000   -62.5000   -66.4000   -63.3000   -63.3000   -68.8000   -71.1000   -67.2000   -67.2000   -66.4000   -67.2000   -66.4000   -64.8000   -68.0000   -67.2000   -66.4000   -68.0000   -65.6000   -67.2000   -68.0000   -68.8000   -70.3000   -71.1000   -68.8000   -67.2000   -68.0000   -67.2000   -65.6000   -68.0000   -66.4000   -64.8000   -64.8000   -67.2000   -71.9000   -71.1000   -71.1000   -71.1000   -68.0000   -68.0000   -68.8000   -68.0000   -69.5000   -69.5000   -68.8000   -69.5000   -72.7000   -68.8000   -67.2000   -67.2000   -70.3000   -71.9000   -71.1000   -69.5000   -71.1000   -68.0000   -71.1000   -73.4000   -70.3000   -70.3000   -69.5000   -71.9000   -71.9000   -70.3000   -72.7000   -73.4000   -71.1000   -72.7000   -71.1000   -71.1000   -73.4000   -72.7000   -74.2000   -76.6000   -71.1000   -73.4000   -75.8000   -73.4000   -72.7000   -74.2000   -72.7000   -74.2000   -73.4000   -72.7000   -72.7000   -71.9000   -75.0000   -76.6000   -74.2000   -72.7000   -71.1000   -73.4000   -75.8000   -70.3000   -70.3000   -72.7000   -73.4000   -71.9000   -75.8000   -72.7000   -70.3000   -74.2000   -75.0000   -72.7000   -72.7000   -72.7000   -74.2000   -76.6000   -75.0000   -72.7000   -75.0000   -72.7000   -73.4000   -72.7000   -68.8000   -71.9000   -74.2000   -73.4000   -73.4000   -71.9000   -71.9000   -71.9000   -71.9000   -73.4000   -74.2000   -70.3000   -70.3000   -71.9000   -71.9000   -74.2000   -71.9000   -70.3000   -72.7000   -75.0000   -71.9000   -75.0000   -72.7000   -74.2000   -76.6000   -73.4000   -71.1000   -70.3000   -71.1000   -72.7000   -71.9000   -75.0000   -75.8000   -71.9000   -71.9000   -75.0000   -74.2000   -74.2000   -75.0000   -75.0000   -71.1000   -72.7000   -71.9000   -71.1000   -69.5000   -68.8000   -68.8000   -68.0000   -70.3000   -71.1000   -75.0000   -72.7000   -68.0000   -71.1000   -70.3000   -66.4000   -68.0000   -70.3000   -67.2000   -65.6000   -66.4000   -66.4000   -69.5000   -71.1000   -69.5000   -68.8000   -69.5000   -70.3000   -69.5000   -67.2000   -66.4000   -71.9000   -70.3000   -68.8000   -67.2000   -71.1000   -73.4000   -70.3000   -67.2000   -68.0000   -68.8000   -68.0000   -68.8000   -68.8000   -67.2000   -69.5000   -71.1000   -65.6000   -67.2000   -68.0000   -65.6000   -66.4000   -63.3000   -66.4000   -68.0000   -68.0000   -67.2000   -66.4000   -65.6000   -66.4000   -68.8000   -68.0000   -69.5000   -68.0000   -66.4000   -66.4000   -68.0000   -68.0000   -68.0000   -70.3000   -67.2000   -66.4000   -68.0000   -68.0000   -67.2000   -73.4000   -71.9000   -71.1000   -74.2000   -71.9000   -70.3000   -75.8000   -77.3000   -79.7000   -78.1000   -75.0000   -75.8000   -75.0000   -75.8000   -75.0000   -73.4000   -75.0000   -71.9000   -70.3000   -69.5000   -72.7000   -74.2000   -75.0000   -73.4000   -70.3000   -70.3000   -68.8000   -67.2000   -64.8000   -63.3000   -62.5000   -64.8000   -59.4000   -56.3000   -57.8000   -57.0000   -57.8000   -57.0000   -53.9000   -51.6000   -52.3000   -51.6000   -53.1000   -54.7000   -54.7000   -57.0000   -57.8000   -62.5000   -64.8000   -64.8000   -71.9000   -74.2000   -74.2000   -75.8000   -72.7000   -70.3000   -72.7000   -76.6000   -78.1000   -79.7000   -81.3000   -81.3000   -78.9000   -80.5000   -84.4000   -84.4000   -85.2000   -85.2000   -81.3000   -79.7000   -80.5000   -84.4000   -83.6000   -82.0000   -82.0000   -80.5000   -78.9000   -78.1000   -80.5000   -80.5000   -77.3000   -76.6000   -77.3000   -78.1000   -78.9000   -79.7000   -78.9000   -80.5000   -81.3000   -78.1000   -78.1000   -76.6000   -78.1000   -74.2000   -73.4000   -76.6000   -75.8000   -74.2000   -73.4000   -75.0000   -75.0000   -75.0000   -73.4000   -68.0000   -68.8000   -68.8000   -68.0000   -68.0000   -69.5000   -71.1000   -71.1000   -68.0000   -66.4000   -64.8000   -62.5000   -61.7000   -62.5000   -65.6000   -64.1000   -67.2000   -67.2000   -68.0000   -66.4000   -67.2000   -68.0000   -69.5000   -68.8000   -68.0000   -70.3000   -66.4000   -67.2000   -65.6000   -64.8000   -66.4000   -65.6000   -67.2000   -68.0000   -67.2000   -63.3000   -64.1000   -64.8000   -65.6000   -65.6000   -69.5000   -69.5000   -67.2000   -70.3000   -73.4000   -71.1000   -68.8000   -69.5000   -68.0000   -68.8000   -71.1000   -70.3000   -71.9000   -68.0000   -67.2000   -68.8000   -69.5000   -69.5000   -68.0000   -68.0000   -68.0000   -70.3000   -68.8000   -67.2000   -64.8000   -65.6000   -67.2000   -63.3000   -64.1000   -64.8000   -63.3000   -65.6000   -68.8000   -67.2000   -69.5000   -70.3000   -68.0000   -65.6000   -64.8000   -64.8000   -65.6000   -65.6000   -63.3000   -67.2000   -67.2000   -67.2000   -67.2000   -64.8000   -64.8000   -66.4000   -67.2000   -66.4000   -65.6000   -65.6000   -68.0000   -68.0000   -68.0000   -70.3000   -68.0000   -65.6000   -64.8000   -64.1000   -65.6000   -64.8000   -66.4000   -67.2000   -64.8000   -64.1000   -62.5000   -66.4000   -66.4000   -68.0000   -65.6000   -63.3000   -62.5000   -60.2000   -62.5000   -62.5000   -62.5000   -63.3000   -64.1000   -62.5000   -64.1000   -64.8000   -64.1000   -64.8000   -64.1000   -64.8000   -64.1000   -60.2000   -62.5000   -61.7000   -61.7000   -60.9000   -60.9000   -63.3000   -64.1000   -62.5000   -62.5000   -61.7000   -62.5000   -60.2000   -59.4000   -59.4000   -58.6000   -60.2000   -57.8000   -57.0000   -60.9000   -64.8000   -64.8000   -67.2000   -68.8000   -69.5000   -68.0000   -68.8000   -68.8000   -67.2000   -68.8000   -67.2000   -66.4000   -67.2000   -68.0000   -68.8000   -65.6000   -65.6000   -64.8000   -64.8000   -66.4000   -66.4000   -64.8000   -67.2000   -69.5000   -69.5000   -69.5000   -68.0000   -65.6000   -65.6000   -67.2000   -66.4000   -67.2000   -68.8000   -68.0000   -68.8000   -69.5000   -70.3000   -71.9000   -72.7000   -73.4000   -71.1000   -71.9000   -71.9000   -71.9000   -70.3000   -70.3000   -72.7000   -73.4000   -75.0000   -74.2000   -77.3000   -78.9000   -81.3000   -85.2000   -85.9000   -88.3000   -86.7000   -87.5000   -85.9000   -85.2000   -85.9000   -85.2000   -83.6000   -81.3000   -81.3000   -84.4000   -86.7000   -89.1000   -85.9000   -85.9000   -85.9000   -85.2000   -85.9000   -82.8000   -85.2000   -83.6000   -77.3000   -75.8000   -78.1000   -76.6000   -78.1000   -78.1000   -75.0000   -74.2000   -75.8000   -75.0000   -72.7000   -71.9000   -70.3000   -70.3000   -69.5000   -68.0000   -68.0000   -68.0000   -68.0000   -67.2000   -66.4000   -64.8000   -65.6000   -66.4000   -66.4000   -62.5000   -62.5000   -68.0000   -65.6000   -64.1000   -66.4000   -65.6000   -63.3000   -60.9000   -62.5000   -64.1000   -59.4000   -57.8000   -61.7000   -60.9000   -61.7000   -62.5000   -62.5000   -64.1000   -65.6000   -62.5000   -64.1000   -62.5000   -58.6000   -57.0000   -57.8000   -60.9000   -58.6000   -54.7000   -57.8000   -60.9000   -58.6000   -56.3000   -55.5000   -55.5000   -53.1000   -52.3000   -49.2000   -50.0000   -50.0000   -50.0000   -49.2000   -49.2000   -50.8000   -47.7000   -44.5000   -48.4000   -50.0000   -53.1000   -50.0000   -50.0000   -51.6000   -48.4000   -48.4000   -51.6000   -51.6000   -51.6000   -53.9000   -54.7000   -54.7000   -53.9000   -51.6000   -50.0000   -53.1000   -56.3000   -59.4000   -63.3000   -64.1000   -63.3000   -63.3000   -64.1000   -65.6000   -69.5000   -74.2000   -76.6000   -77.3000   -78.9000   -79.7000   -84.4000   -83.6000   -85.9000   -90.6000   -91.4000   -91.4000   -90.6000   -90.6000   -92.2000   -92.2000   -93.8000   -94.5000   -93.0000   -90.6000   -90.6000   -91.4000   -88.3000   -88.3000   -88.3000   -86.7000   -84.4000   -84.4000   -82.0000   -82.0000   -78.9000   -77.3000   -75.8000   -74.2000   -72.7000   -72.7000   -71.9000   -70.3000   -71.1000   -72.7000   -73.4000   -71.9000   -69.5000   -68.8000   -66.4000   -65.6000   -68.0000   -68.8000   -65.6000   -63.3000   -63.3000   -64.1000   -64.8000   -65.6000   -65.6000   -63.3000   -62.5000   -63.3000   -62.5000   -57.8000   -54.7000   -54.7000   -61.7000   -69.5000   -73.4000   -73.4000   -71.9000   -75.8000   -75.8000   -71.9000   -70.3000   -74.2000   -76.6000   -76.6000   -75.0000   -71.9000   -72.7000   -75.0000   -75.0000   -75.0000   -73.4000   -71.9000   -72.7000   -70.3000   -68.8000   -73.4000   -76.6000   -73.4000   -71.1000   -71.1000   -74.2000   -75.8000   -75.0000   -71.9000   -71.1000   -71.1000   -69.5000   -69.5000   -71.9000   -68.8000   -68.8000   -68.0000   -70.3000   -72.7000   -73.4000   -75.0000   -72.7000   -68.8000   -69.5000   -71.1000   -73.4000   -73.4000   -72.7000   -69.5000   -68.8000   -71.1000   -73.4000   -77.3000   -78.1000   -78.1000   -77.3000   -77.3000   -80.5000   -81.3000   -81.3000   -79.7000   -77.3000   -78.1000   -78.1000   -78.1000   -78.9000   -78.9000   -78.9000   -79.7000   -76.6000   -76.6000   -78.9000   -78.1000   -80.5000   -80.5000   -78.9000   -78.1000   -78.1000   -75.8000   -77.3000   -76.6000   -78.9000   -75.8000   -75.0000   -75.0000   -73.4000   -73.4000   -75.8000   -76.6000   -78.1000   -78.1000   -74.2000   -72.7000   -75.0000   -71.1000   -71.1000   -72.7000   -71.1000   -70.3000   -71.1000   -70.3000   -71.1000   -68.0000   -68.8000   -71.9000   -69.5000   -68.0000   -68.8000   -65.6000   -64.8000   -64.1000   -64.1000   -61.7000   -60.9000   -62.5000   -61.7000   -64.8000   -66.4000   -64.8000   -62.5000   -61.7000   -60.9000   -61.7000   -60.9000   -56.3000   -56.3000   -56.3000   -53.9000   -53.1000   -50.8000   -48.4000   -50.8000   -49.2000   -47.7000   -50.8000   -47.7000   -45.3000   -50.0000   -49.2000   -51.6000   -53.1000   -52.3000   -50.0000   -50.0000   -47.7000   -50.0000   -48.4000   -46.1000   -47.7000   -44.5000   -48.4000   -48.4000   -50.8000   -50.8000   -50.8000   -50.8000   -49.2000   -50.8000   -50.0000   -49.2000   -50.0000   -53.9000   -56.3000   -58.6000   -60.9000   -64.1000   -68.0000   -68.0000   -70.3000   -75.0000   -77.3000   -77.3000   -78.9000   -80.5000   -83.6000   -85.9000   -85.9000   -86.7000   -89.1000   -89.1000   -90.6000   -88.3000   -89.8000   -90.6000   -89.1000   -89.1000   -85.2000   -89.1000   -90.6000   -89.1000   -89.1000   -90.6000   -87.5000   -86.7000   -84.4000   -82.8000   -82.8000   -82.8000   -83.6000   -81.3000   -82.8000   -79.7000   -80.5000   -80.5000   -80.5000   -78.1000   -75.0000   -76.6000   -75.0000   -73.4000   -72.7000   -72.7000   -72.7000   -73.4000   -71.9000   -70.3000   -72.7000   -73.4000   -69.5000   -71.9000   -71.1000   -68.0000   -68.0000   -70.3000   -71.9000   -71.9000   -70.3000   -71.9000   -72.7000   -69.5000   -71.1000   -71.9000   -71.9000   -73.4000   -71.9000   -73.4000   -74.2000   -72.7000   -69.5000   -72.7000   -71.9000   -72.7000   -73.4000   -70.3000   -71.1000   -69.5000   -69.5000   -71.9000   -72.7000   -73.4000   -76.6000   -76.6000   -78.1000   -75.8000   -77.3000   -79.7000   -80.5000   -79.7000   -78.1000   -74.2000   -78.1000   -79.7000   -79.7000   -81.3000   -77.3000   -76.6000   -79.7000   -79.7000   -79.7000   -76.6000   -75.8000   -76.6000   -75.8000   -75.0000   -76.6000   -76.6000   -74.2000   -78.1000   -78.1000   -75.8000   -74.2000   -71.1000   -71.1000   -72.7000   -73.4000   -71.1000   -70.3000   -68.0000   -71.9000   -76.6000   -74.2000   -71.9000   -71.9000   -73.4000   -71.9000   -71.9000   -71.1000   -73.4000   -74.2000   -75.8000   -75.8000   -75.8000   -72.7000   -70.3000   -68.8000   -69.5000   -69.5000   -71.9000   -73.4000   -74.2000   -74.2000   -73.4000   -68.8000   -71.1000   -71.1000   -72.7000   -72.7000   -74.2000   -72.7000   -70.3000   -70.3000   -68.8000   -71.1000   -72.7000   -71.1000   -68.8000   -68.8000   -68.8000   -68.8000   -71.9000   -73.4000   -74.2000   -72.7000   -69.5000   -68.0000   -68.0000   -65.6000   -66.4000   -68.8000   -68.0000   -66.4000   -69.5000   -68.8000   -70.3000   -72.7000   -72.7000   -75.0000   -72.7000   -68.0000   -68.0000   -65.6000   -66.4000   -70.3000   -71.1000   -71.9000   -71.9000   -70.3000   -72.7000   -69.5000   -68.8000   -70.3000   -71.1000   -73.4000   -71.9000   -68.0000   -70.3000   -71.9000   -70.3000   -71.1000   -74.2000   -74.2000   -70.3000   -68.8000   -71.1000   -71.9000   -74.2000   -71.9000   -71.9000   -71.1000   -70.3000   -74.2000   -73.4000   -73.4000   -74.2000   -74.2000   -72.7000   -70.3000   -72.7000   -73.4000   -75.0000   -75.8000   -77.3000   -78.1000   -78.1000   -76.6000   -78.1000   -78.1000   -76.6000   -75.8000   -75.0000   -74.2000   -74.2000   -75.0000   -75.8000   -76.6000   -79.7000   -76.6000   -75.0000   -77.3000   -75.0000   -75.8000   -75.8000   -76.6000   -78.1000   -76.6000   -70.3000   -73.4000   -73.4000   -75.0000   -75.0000   -73.4000   -73.4000   -74.2000   -74.2000   -71.9000   -70.3000   -71.1000   -71.9000   -73.4000   -72.7000   -68.8000   -68.0000   -67.2000   -68.0000   -64.8000   -64.1000   -66.4000   -65.6000   -65.6000   -67.2000   -64.8000   -65.6000   -67.2000   -64.8000   -65.6000   -64.8000   -64.8000   -67.2000   -66.4000   -67.2000   -69.5000   -71.9000   -76.6000   -78.1000   -82.8000   -84.4000   -86.7000   -90.6000   -89.8000   -85.2000   -88.3000   -91.4000   -92.2000   -93.8000   -93.8000   -93.8000   -92.2000   -93.0000   -93.8000   -96.1000   -97.7000   -96.1000   -95.3000   -94.5000   -93.8000   -95.3000   -99.2000   -96.9000   -94.5000   -92.2000   -89.1000   -90.6000   -85.9000   -89.8000   -91.4000   -90.6000   -90.6000   -89.8000   -89.8000   -87.5000   -87.5000   -87.5000   -85.2000   -83.6000   -82.8000   -79.7000   -82.8000   -82.0000   -82.8000   -84.4000   -82.8000   -81.3000   -81.3000   -78.9000   -78.1000   -78.9000   -79.7000   -78.9000   -78.9000   -79.7000   -78.9000   -76.6000   -79.7000   -81.3000   -80.5000   -80.5000   -78.1000   -78.9000   -80.5000   -79.7000   -79.7000   -81.3000   -79.7000   -80.5000   -78.1000   -76.6000   -75.8000   -78.1000   -78.9000   -77.3000   -77.3000   -78.1000   -76.6000   -75.8000   -78.1000   -78.9000   -80.5000   -80.5000   -79.7000   -78.9000   -78.9000   -77.3000   -75.8000   -77.3000   -75.8000   -77.3000   -78.1000   -76.6000   -78.1000   -81.3000   -81.3000   -80.5000   -79.7000   -77.3000   -78.9000   -78.9000   -77.3000   -76.6000   -78.1000   -77.3000   -77.3000   -76.6000   -77.3000   -77.3000   -76.6000   -77.3000   -76.6000   -76.6000   -75.8000   -75.8000   -77.3000   -78.1000   -77.3000   -78.1000   -76.6000   -75.8000   -75.0000   -74.2000   -78.1000   -76.6000   -75.8000   -75.0000   -72.7000   -71.9000   -75.8000   -75.0000   -73.4000   -75.8000   -72.7000   -72.7000   -71.1000   -70.3000   -69.5000   -71.1000   -71.9000   -72.7000   -69.5000   -71.1000   -71.1000   -72.7000   -75.8000   -74.2000   -69.5000   -70.3000   -65.6000   -65.6000   -65.6000   -64.8000   -65.6000   -64.1000   -61.7000   -64.1000   -63.3000   -63.3000   -67.2000   -68.0000   -65.6000   -64.1000   -64.1000   -64.1000   -62.5000   -68.0000   -68.8000   -70.3000   -73.4000   -71.9000   -71.1000   -73.4000   -71.9000   -74.2000   -78.9000   -79.7000   -80.5000   -79.7000   -78.9000   -80.5000   -80.5000   -83.6000   -83.6000   -84.4000   -82.0000   -82.0000   -82.8000   -87.5000   -88.3000   -89.1000   -89.8000   -90.6000   -90.6000   -89.8000   -85.9000   -89.1000   -89.1000   -87.5000   -84.4000   -83.6000   -83.6000   -82.0000   -83.6000   -83.6000   -84.4000   -85.9000   -83.6000   -84.4000   -85.2000   -82.8000   -81.3000   -79.7000   -79.7000   -79.7000   -78.1000   -80.5000   -80.5000   -82.0000   -78.9000   -74.2000   -75.8000   -76.6000   -75.8000   -75.0000   -74.2000   -75.8000   -71.9000   -70.3000   -72.7000   -68.8000   -67.2000   -68.0000   -68.8000   -70.3000   -68.0000   -64.8000   -62.5000   -64.8000   -67.2000   -65.6000   -63.3000   -64.8000   -64.1000   -61.7000   -61.7000   -61.7000   -58.6000   -58.6000   -57.0000   -56.3000   -55.5000   -53.9000   -55.5000   -57.0000   -55.5000   -56.3000   -56.3000   -57.0000   -57.8000   -57.0000   -57.8000   -55.5000   -57.0000   -55.5000   -57.0000   -55.5000   -57.0000   -57.8000   -57.0000   -57.8000   -58.6000   -59.4000   -57.0000   -55.5000   -57.0000   -60.9000   -59.4000   -61.7000   -60.9000   -58.6000   -57.8000   -58.6000   -57.8000   -57.8000   -57.8000   -58.6000   -60.2000   -61.7000   -60.9000   -60.9000   -63.3000   -65.6000   -62.5000   -61.7000   -64.1000   -65.6000   -62.5000   -60.2000   -60.2000   -64.8000   -64.8000   -63.3000   -61.7000   -63.3000   -62.5000   -65.6000   -63.3000   -58.6000   -60.2000   -60.9000   -59.4000   -53.9000   -55.5000   -54.7000   -54.7000   -57.0000   -55.5000   -56.3000   -57.8000   -58.6000   -60.2000   -58.6000   -59.4000   -59.4000   -56.3000   -56.3000   -55.5000   -57.0000   -58.6000   -58.6000   -63.3000   -66.4000   -68.0000   -67.2000   -68.8000   -68.8000   -68.0000   -68.0000   -67.2000   -64.1000   -65.6000   -69.5000   -67.2000   -65.6000   -64.1000   -62.5000   -63.3000   -61.7000   -64.8000   -64.8000   -64.1000   -64.1000   -65.6000   -65.6000   -64.1000   -64.8000   -65.6000   -66.4000   -65.6000   -64.8000   -68.0000   -66.4000   -66.4000   -71.9000   -67.2000   -68.8000   -68.0000   -68.8000   -69.5000   -69.5000   -69.5000   -72.7000   -75.0000   -78.1000   -77.3000   -78.1000   -78.1000   -80.5000   -83.6000   -82.0000   -82.8000   -82.0000   -80.5000   -83.6000   -84.4000   -87.5000   -87.5000   -85.2000   -83.6000   -83.6000   -82.0000   -79.7000   -82.0000   -82.8000   -80.5000   -79.7000   -80.5000   -82.8000   -84.4000   -82.0000   -81.3000   -81.3000   -80.5000   -80.5000   -80.5000   -78.9000   -76.6000   -75.0000   -74.2000   -74.2000   -74.2000   -74.2000   -77.3000   -75.0000   -76.6000   -77.3000   -76.6000   -75.0000   -75.0000   -73.4000   -73.4000   -75.8000   -76.6000   -75.0000   -74.2000   -75.8000   -77.3000   -75.0000   -77.3000   -78.1000   -77.3000   -75.0000   -75.0000   -76.6000   -77.3000   -76.6000   -77.3000   -75.8000   -76.6000   -76.6000   -74.2000   -74.2000   -72.7000   -74.2000   -75.8000   -78.9000   -78.1000   -77.3000   -77.3000   -78.9000   -78.1000   -75.8000   -76.6000   -75.0000   -76.6000   -77.3000   -77.3000   -75.0000   -73.4000   -74.2000   -75.8000   -73.4000   -75.8000   -78.1000   -78.1000   -78.9000   -77.3000   -78.1000   -74.2000   -71.9000   -74.2000   -74.2000   -75.0000   -76.6000   -74.2000   -74.2000   -71.9000   -69.5000   -69.5000   -72.7000   -74.2000   -72.7000   -73.4000   -71.1000   -68.8000   -68.8000   -67.2000   -66.4000   -65.6000   -64.8000   -64.1000   -62.5000   -60.9000   -63.3000   -63.3000   -65.6000   -65.6000   -61.7000   -58.6000   -59.4000   -64.8000   -62.5000   -58.6000   -60.2000   -59.4000   -57.0000   -57.8000   -57.8000   -57.8000   -56.3000   -54.7000   -57.8000   -61.7000   -61.7000   -63.3000   -61.7000   -64.1000   -62.5000   -64.8000   -64.1000   -68.0000   -73.4000   -75.0000   -75.0000   -75.0000   -74.2000   -73.4000   -76.6000   -80.5000   -82.0000   -82.0000   -80.5000   -80.5000   -82.0000   -85.2000   -88.3000   -86.7000   -87.5000   -85.9000   -88.3000   -89.8000   -91.4000   -93.8000   -93.8000   -92.2000   -93.0000   -93.8000   -93.0000   -93.0000   -93.8000   -95.3000   -95.3000   -91.4000   -92.2000   -90.6000   -89.8000   -91.4000   -90.6000   -88.3000   -89.8000   -89.1000   -89.8000   -89.1000   -86.7000   -87.5000   -89.1000   -86.7000   -85.2000   -82.0000   -81.3000   -79.7000   -80.5000   -80.5000   -80.5000   -78.9000   -79.7000   -76.6000   -76.6000   -78.9000   -80.5000   -78.9000   -76.6000   -74.2000   -72.7000   -73.4000   -74.2000   -75.0000   -75.8000   -75.8000   -74.2000   -73.4000   -72.7000   -72.7000   -71.9000   -70.3000   -68.8000   -68.8000   -70.3000   -75.0000   -74.2000   -71.9000   -71.9000   -70.3000   -75.8000   -75.8000   -75.8000   -78.1000   -76.6000   -75.8000   -75.0000   -75.8000   -74.2000   -75.0000   -74.2000   -75.8000   -76.6000   -74.2000   -71.9000   -71.1000   -72.7000   -73.4000   -73.4000   -73.4000   -71.1000   -73.4000   -73.4000   -72.7000   -75.0000   -73.4000   -71.9000   -68.8000   -69.5000   -68.8000   -68.8000   -69.5000   -69.5000   -68.8000   -71.1000   -71.1000   -72.7000   -71.1000   -68.8000   -67.2000   -70.3000   -70.3000   -68.8000   -68.0000   -69.5000   -70.3000   -69.5000   -68.8000   -69.5000   -68.8000   -67.2000   -67.2000   -71.1000   -75.0000   -74.2000   -74.2000   -72.7000   -73.4000   -73.4000   -71.1000   -69.5000   -68.8000   -69.5000   -71.1000   -75.0000   -72.7000   -68.8000   -70.3000   -72.7000   -72.7000   -75.8000   -78.9000   -77.3000   -76.6000   -76.6000   -76.6000   -77.3000   -76.6000   -75.8000   -75.0000   -75.0000   -72.7000   -75.0000   -75.0000   -76.6000   -78.1000   -77.3000   -76.6000   -78.9000   -76.6000   -78.9000   -78.1000   -75.0000   -75.0000   -75.8000   -76.6000   -78.1000   -79.7000   -79.7000   -78.9000   -76.6000   -75.8000   -75.8000   -75.8000   -75.0000   -74.2000   -74.2000   -74.2000   -71.9000   -74.2000   -73.4000   -74.2000   -75.8000   -77.3000   -75.0000   -74.2000   -76.6000   -74.2000   -75.8000   -76.6000   -75.0000   -72.7000   -71.9000   -73.4000   -70.3000   -68.8000   -72.7000   -71.1000   -68.0000   -68.8000   -68.8000   -67.2000   -68.0000   -68.8000   -71.1000   -71.9000   -72.7000   -72.7000   -69.5000   -70.3000   -71.9000   -72.7000   -71.9000   -71.9000   -72.7000   -71.1000   -70.3000   -75.8000   -76.6000   -75.8000   -75.0000   -77.3000   -78.1000   -76.6000   -75.0000   -78.1000   -78.9000   -78.9000   -76.6000   -76.6000   -79.7000   -79.7000   -81.3000   -82.0000   -82.8000   -81.3000   -81.3000   -79.7000   -80.5000   -78.1000   -78.1000   -77.3000   -78.1000   -76.6000   -78.1000   -76.6000   -75.8000   -78.9000   -76.6000   -73.4000   -76.6000   -74.2000   -73.4000   -77.3000   -75.0000   -75.8000   -75.8000   -73.4000   -71.1000   -71.1000   -73.4000   -72.7000   -74.2000   -71.9000   -69.5000   -69.5000   -71.1000   -71.9000   -74.2000   -73.4000   -73.4000   -72.7000   -70.3000   -69.5000   -71.1000   -69.5000   -69.5000   -72.7000   -70.3000   -68.8000   -68.0000   -70.3000   -70.3000   -73.4000   -72.7000   -69.5000   -68.0000   -68.8000   -70.3000   -71.9000   -70.3000   -66.4000   -64.8000   -63.3000   -64.8000   -63.3000   -62.5000   -62.5000   -59.4000   -60.2000   -59.4000   -55.5000   -55.5000   -57.0000   -55.5000   -54.7000   -53.1000   -50.0000   -47.7000   -49.2000   -49.2000   -50.0000   -47.7000   -43.8000   -41.4000   -41.4000   -41.4000   -41.4000   -43.0000   -43.0000   -42.2000   -37.5000   -36.7000   -35.2000   -32.8000   -32.0000   -32.0000   -28.9000   -30.5000   -31.3000   -35.2000   -37.5000   -42.2000   -44.5000   -46.9000   -53.9000   -59.4000   -64.1000   -67.2000   -70.3000   -75.8000   -79.7000   -85.2000   -89.8000   -90.6000   -93.8000   -98.4000   -99.2000   -99.2000  -101.6000  -105.5000  -110.2000  -109.4000  -105.5000  -107.0000  -106.3000  -107.8000  -106.3000  -103.9000  -102.3000   -98.4000   -96.9000   -98.4000  -101.6000  -100.0000   -97.7000   -93.0000   -90.6000   -87.5000   -85.9000   -88.3000   -85.9000   -83.6000   -84.4000   -84.4000   -78.1000   -79.7000   -80.5000   -80.5000   -81.3000   -79.7000   -78.9000   -76.6000   -75.0000   -73.4000   -75.0000   -75.0000   -74.2000   -73.4000   -68.8000   -69.5000   -69.5000   -66.4000   -62.5000   -62.5000   -68.0000   -76.6000   -79.7000   -82.8000   -82.8000   -80.5000   -78.9000   -78.9000   -78.9000   -82.0000   -83.6000   -81.3000   -82.0000   -81.3000   -79.7000   -80.5000   -82.8000   -82.8000   -80.5000   -81.3000   -80.5000   -78.1000   -79.7000   -79.7000   -80.5000   -82.8000   -79.7000   -78.1000   -77.3000   -77.3000   -77.3000   -77.3000   -76.6000   -75.0000   -73.4000   -73.4000   -75.0000   -74.2000   -71.9000   -69.5000   -69.5000   -71.1000   -68.0000   -68.0000   -67.2000   -66.4000   -66.4000   -68.8000   -68.0000   -65.6000   -60.2000   -60.9000   -57.8000   -57.8000   -57.0000   -56.3000   -54.7000   -53.1000   -53.9000   -54.7000   -53.9000   -53.9000   -54.7000   -55.5000   -57.8000   -57.0000   -56.3000   -60.2000   -66.4000   -68.8000   -66.4000   -69.5000   -73.4000   -72.7000   -70.3000   -75.0000   -78.1000   -75.8000   -75.8000   -76.6000   -76.6000   -77.3000   -78.1000   -78.1000   -78.1000   -77.3000   -78.9000   -79.7000   -78.1000   -79.7000   -79.7000   -77.3000   -76.6000   -75.0000   -73.4000   -73.4000   -72.7000   -73.4000   -69.5000   -68.8000   -67.2000   -66.4000   -68.0000   -68.0000   -65.6000   -65.6000   -64.1000   -61.7000   -63.3000   -63.3000   -64.1000   -64.8000   -64.1000   -63.3000   -62.5000   -62.5000   -62.5000   -63.3000   -62.5000   -59.4000   -60.2000   -60.2000   -57.0000   -59.4000   -62.5000   -65.6000   -64.8000   -65.6000   -66.4000   -66.4000   -68.0000   -64.8000   -64.8000   -66.4000   -66.4000   -67.2000   -68.0000   -68.8000   -70.3000   -75.0000   -77.3000   -75.8000   -76.6000   -76.6000   -78.1000   -78.1000   -77.3000   -78.9000   -84.4000   -83.6000   -82.0000   -82.0000   -81.3000   -82.8000   -81.3000   -80.5000   -80.5000   -79.7000   -78.9000   -82.0000   -84.4000   -85.2000   -82.8000   -80.5000   -79.7000   -80.5000   -79.7000   -76.6000   -76.6000   -77.3000   -76.6000   -77.3000   -73.4000   -70.3000   -72.7000   -73.4000   -70.3000   -70.3000   -71.9000   -71.1000   -65.6000   -67.2000   -66.4000   -65.6000   -67.2000   -65.6000   -65.6000   -66.4000   -64.8000   -58.6000   -60.2000   -57.8000   -59.4000   -64.1000   -62.5000   -64.1000   -61.7000   -58.6000   -56.3000   -55.5000   -54.7000   -54.7000   -53.9000   -53.9000   -55.5000   -55.5000   -53.9000   -52.3000   -53.1000   -54.7000   -53.1000   -50.8000   -54.7000   -53.1000   -56.3000   -57.8000   -57.0000   -57.8000   -57.8000   -61.7000   -60.9000   -57.8000   -57.0000   -61.7000   -63.3000   -63.3000   -65.6000   -64.8000   -62.5000   -64.1000   -65.6000   -64.1000   -67.2000   -66.4000   -69.5000   -67.2000   -67.2000   -68.8000   -69.5000   -71.9000   -72.7000   -71.9000   -71.1000   -70.3000   -71.1000   -68.8000   -70.3000   -71.1000   -69.5000   -68.0000   -68.0000   -71.1000   -75.0000   -72.7000   -73.4000   -69.5000   -70.3000   -69.5000   -67.2000   -69.5000   -71.1000   -71.1000   -71.1000   -69.5000   -68.0000   -67.2000   -68.0000   -68.0000   -68.8000   -68.0000   -66.4000   -67.2000   -67.2000   -66.4000   -69.5000   -70.3000   -68.8000   -70.3000   -71.9000   -72.7000   -71.1000   -72.7000   -73.4000   -71.1000   -70.3000   -70.3000   -72.7000   -71.1000   -68.8000   -69.5000   -68.0000   -69.5000   -67.2000   -68.0000   -68.8000   -67.2000   -68.8000   -66.4000   -65.6000   -65.6000   -65.6000   -64.8000   -66.4000   -68.0000   -67.2000   -69.5000   -75.0000   -75.8000   -76.6000   -77.3000   -75.8000   -80.5000   -80.5000   -82.0000   -82.0000   -82.0000   -80.5000   -82.8000   -85.9000   -89.1000   -90.6000   -92.2000   -93.0000   -94.5000   -95.3000   -95.3000   -96.9000   -95.3000   -98.4000   -94.5000   -93.8000   -92.2000   -91.4000   -94.5000   -96.1000   -99.2000   -98.4000   -94.5000   -93.0000   -93.0000   -92.2000   -94.5000   -95.3000   -91.4000   -89.8000   -86.7000   -89.1000   -88.3000   -89.1000   -88.3000   -85.9000   -87.5000   -88.3000   -85.2000   -87.5000   -86.7000   -83.6000   -84.4000   -83.6000   -79.7000   -80.5000   -81.3000   -78.9000   -75.0000   -75.0000   -78.1000   -80.5000   -79.7000   -80.5000   -78.1000   -75.8000   -74.2000   -71.9000   -73.4000   -74.2000   -75.0000   -75.8000   -75.8000   -73.4000   -74.2000   -75.0000   -76.6000   -77.3000   -78.1000   -75.8000   -72.7000   -75.8000   -75.0000   -75.8000   -78.1000   -75.0000   -75.8000   -76.6000   -73.4000   -74.2000   -76.6000   -75.0000   -72.7000   -73.4000   -75.8000   -71.1000   -73.4000   -74.2000   -74.2000   -77.3000   -75.8000   -78.1000   -75.8000   -75.0000   -75.0000   -75.0000   -73.4000   -73.4000   -73.4000   -72.7000   -71.1000   -73.4000   -73.4000   -75.8000   -78.1000   -73.4000   -71.9000   -74.2000   -73.4000   -72.7000   -75.0000   -75.0000   -75.0000   -75.0000   -77.3000   -78.9000   -78.9000   -78.9000   -78.9000   -78.9000   -79.7000   -78.1000   -75.8000   -77.3000   -78.9000   -78.1000   -78.1000   -77.3000   -78.9000   -77.3000   -76.6000   -79.7000   -78.9000   -76.6000   -75.8000   -75.8000   -77.3000   -78.1000   -77.3000   -77.3000   -75.8000   -76.6000   -77.3000   -76.6000   -75.0000   -71.9000   -71.9000   -75.0000   -74.2000   -72.7000   -75.0000   -75.8000   -75.0000   -74.2000   -75.8000   -72.7000   -75.0000   -73.4000   -73.4000   -72.7000   -73.4000   -75.8000   -76.6000   -73.4000   -78.1000   -79.7000   -77.3000   -78.9000   -81.3000   -78.9000   -79.7000   -81.3000   -78.1000   -76.6000   -78.1000   -77.3000   -75.8000   -78.1000   -78.9000   -78.1000   -77.3000   -79.7000   -79.7000   -82.0000   -82.8000   -80.5000   -82.8000   -79.7000   -78.9000   -80.5000   -78.1000   -76.6000   -75.0000   -75.0000   -75.8000   -75.0000   -73.4000   -71.1000   -73.4000   -75.8000   -79.7000   -82.0000   -79.7000   -82.0000   -83.6000   -82.8000   -83.6000   -82.0000   -83.6000   -79.7000   -77.3000   -78.1000   -80.5000   -78.9000   -78.9000   -80.5000   -82.8000   -82.8000   -82.8000   -81.3000   -81.3000   -80.5000   -78.9000   -76.6000   -79.7000   -79.7000   -80.5000   -80.5000   -81.3000   -82.0000   -80.5000   -81.3000   -80.5000   -80.5000   -82.0000   -80.5000   -77.3000   -78.9000   -79.7000   -79.7000   -79.7000   -77.3000   -76.6000   -75.8000   -75.8000   -78.9000   -78.9000   -78.1000   -77.3000   -78.1000   -78.9000   -74.2000   -73.4000   -74.2000   -72.7000   -71.9000   -71.1000   -69.5000   -68.0000   -66.4000   -68.0000   -68.8000   -73.4000   -75.0000   -73.4000   -73.4000   -75.8000   -76.6000   -76.6000   -78.1000   -78.1000   -78.1000   -75.8000   -77.3000   -78.1000   -78.9000   -81.3000   -80.5000   -80.5000   -80.5000   -81.3000   -83.6000   -83.6000   -81.3000   -78.1000   -80.5000   -81.3000   -79.7000   -80.5000   -81.3000   -82.0000   -83.6000   -82.0000   -81.3000   -82.8000   -85.2000   -85.9000   -82.8000   -78.9000   -80.5000   -79.7000   -81.3000   -82.0000   -81.3000   -79.7000   -82.0000   -80.5000   -81.3000   -82.0000   -84.4000   -85.9000   -86.7000   -85.2000   -85.9000   -83.6000   -85.2000   -83.6000   -85.2000   -85.9000   -87.5000   -83.6000   -84.4000   -86.7000   -83.6000   -82.0000   -83.6000   -85.2000   -81.3000   -78.9000   -79.7000   -78.9000   -75.8000   -72.7000   -71.1000   -75.0000   -74.2000   -73.4000   -73.4000   -73.4000   -72.7000   -75.0000   -75.0000   -75.0000   -75.8000   -75.0000   -76.6000   -72.7000   -73.4000   -73.4000   -73.4000   -73.4000   -74.2000   -71.9000   -71.9000   -68.0000   -65.6000   -65.6000   -68.0000   -65.6000   -67.2000   -68.0000   -67.2000   -66.4000   -66.4000   -67.2000   -66.4000   -64.1000   -61.7000   -60.9000   -61.7000   -62.5000   -60.2000   -63.3000   -60.2000   -59.4000   -60.9000   -60.9000   -63.3000   -64.1000   -60.9000   -57.8000   -57.0000   -54.7000   -53.9000   -57.0000   -56.3000   -57.8000   -58.6000   -57.8000   -57.8000   -60.2000   -60.2000   -58.6000   -57.8000   -56.3000   -59.4000   -61.7000   -56.3000   -56.3000   -57.0000   -57.8000   -58.6000   -60.2000   -58.6000   -57.8000   -59.4000   -60.9000   -59.4000   -59.4000   -62.5000   -59.4000   -60.2000   -61.7000   -60.9000   -60.2000   -59.4000   -60.9000   -60.9000   -65.6000   -64.8000   -62.5000   -63.3000   -61.7000   -63.3000   -63.3000   -64.8000   -61.7000   -61.7000   -61.7000   -60.9000   -61.7000   -64.1000   -64.8000   -62.5000   -64.8000   -60.9000   -60.2000   -63.3000   -64.8000   -66.4000   -68.8000   -69.5000   -66.4000   -67.2000   -68.0000   -67.2000   -65.6000   -65.6000   -66.4000   -67.2000   -65.6000   -67.2000   -67.2000   -66.4000   -64.8000   -68.0000   -69.5000   -70.3000   -71.9000   -72.7000   -68.8000   -68.8000   -68.8000   -66.4000   -67.2000   -67.2000   -68.8000   -69.5000   -71.9000   -69.5000   -68.8000   -69.5000   -68.0000   -68.0000   -69.5000   -73.4000   -72.7000   -74.2000   -72.7000   -70.3000   -70.3000   -68.8000   -68.8000   -69.5000   -71.9000   -75.8000   -76.6000   -75.8000   -73.4000   -74.2000   -72.7000   -71.1000   -71.1000   -72.7000   -74.2000   -72.7000   -73.4000   -68.8000   -67.2000   -71.1000   -72.7000   -69.5000   -72.7000   -77.3000   -77.3000   -76.6000   -76.6000   -74.2000   -78.9000   -78.9000   -75.8000   -79.7000   -79.7000   -82.8000   -82.0000   -82.8000   -81.3000   -81.3000   -82.0000   -86.7000   -85.9000   -85.9000   -85.2000   -85.2000   -84.4000   -84.4000   -83.6000   -85.9000   -84.4000   -82.8000   -82.8000   -85.2000   -84.4000   -83.6000   -82.0000   -82.0000   -80.5000   -82.0000   -84.4000   -84.4000   -85.2000   -85.2000   -85.2000   -85.9000   -87.5000   -83.6000   -82.8000   -83.6000   -84.4000   -83.6000   -83.6000   -86.7000   -87.5000   -88.3000   -85.2000   -83.6000   -83.6000   -82.8000   -80.5000   -80.5000   -78.9000   -80.5000   -82.0000   -82.0000   -85.2000   -83.6000   -83.6000   -82.0000   -81.3000   -82.8000   -83.6000   -82.8000   -82.0000   -80.5000   -79.7000   -78.9000   -78.9000   -79.7000   -80.5000   -80.5000   -81.3000   -79.7000   -80.5000   -81.3000   -80.5000   -79.7000   -77.3000   -76.6000   -78.1000   -78.9000   -74.2000   -76.6000   -77.3000   -76.6000   -76.6000   -76.6000   -77.3000   -78.1000   -76.6000   -75.0000   -78.1000   -75.0000   -73.4000   -73.4000   -71.9000   -75.0000   -75.0000   -72.7000   -73.4000   -69.5000   -71.9000   -75.0000   -71.9000   -72.7000   -73.4000   -73.4000   -77.3000   -79.7000   -77.3000   -76.6000   -72.7000   -73.4000   -73.4000   -71.9000   -71.1000   -73.4000   -71.1000   -74.2000   -75.8000   -70.3000   -73.4000   -72.7000   -73.4000   -72.7000   -74.2000   -71.9000   -70.3000   -71.9000   -71.1000   -74.2000   -75.0000   -72.7000   -70.3000   -71.1000   -69.5000   -71.9000   -71.9000   -73.4000   -73.4000   -70.3000   -71.9000   -72.7000   -71.1000   -70.3000   -69.5000   -70.3000   -70.3000   -71.9000   -69.5000   -67.2000   -68.0000   -69.5000   -70.3000   -72.7000   -72.7000   -70.3000   -70.3000   -67.2000   -66.4000   -67.2000   -65.6000   -66.4000   -66.4000   -68.0000   -67.2000   -68.8000   -68.8000   -69.5000   -70.3000   -69.5000   -71.1000   -67.2000   -66.4000   -66.4000   -65.6000   -68.0000   -68.8000   -69.5000   -69.5000   -68.0000   -68.8000   -68.0000   -68.0000   -67.2000   -66.4000   -65.6000   -67.2000   -68.0000   -68.0000   -67.2000   -67.2000   -68.8000   -70.3000   -68.0000   -65.6000   -64.1000   -65.6000   -67.2000   -68.8000   -69.5000   -68.8000   -69.5000   -68.0000   -67.2000   -67.2000   -70.3000   -69.5000   -67.2000   -66.4000   -66.4000   -67.2000   -67.2000   -65.6000   -65.6000   -65.6000   -69.5000   -68.0000   -66.4000   -68.8000   -69.5000   -69.5000   -67.2000   -69.5000   -70.3000   -69.5000   -68.0000   -69.5000   -68.0000   -68.8000   -67.2000   -68.0000   -67.2000   -68.0000   -70.3000   -69.5000   -68.0000   -70.3000   -69.5000   -68.0000   -68.8000   -68.8000   -69.5000   -68.8000   -67.2000   -65.6000   -68.8000   -68.8000   -69.5000   -71.9000   -70.3000   -70.3000   -68.8000   -68.0000   -68.8000   -71.1000   -69.5000   -68.0000   -69.5000   -68.0000   -72.7000   -75.8000   -71.9000   -70.3000   -71.1000   -75.8000   -76.6000   -75.8000   -75.8000   -73.4000   -72.7000   -76.6000   -75.8000   -72.7000   -71.9000   -72.7000   -73.4000   -73.4000   -72.7000   -71.9000   -73.4000   -75.8000   -76.6000   -77.3000   -77.3000   -78.1000   -77.3000   -75.0000   -76.6000   -77.3000   -78.9000   -78.1000   -75.0000   -75.0000   -78.9000   -78.9000   -78.9000   -78.9000   -77.3000   -79.7000   -78.9000   -78.9000   -78.9000   -77.3000   -79.7000   -76.6000   -73.4000   -75.8000   -75.8000   -77.3000   -79.7000   -79.7000   -80.5000   -80.5000   -78.9000   -81.3000   -84.4000   -83.6000   -81.3000   -79.7000   -79.7000   -77.3000   -78.9000   -79.7000   -79.7000   -77.3000   -76.6000   -78.1000   -81.3000   -86.7000   -86.7000   -83.6000   -81.3000   -83.6000   -82.0000   -79.7000   -80.5000   -80.5000   -80.5000   -76.6000   -78.1000   -80.5000   -81.3000   -82.8000   -81.3000   -79.7000   -80.5000   -82.0000   -82.0000   -82.8000   -82.8000   -81.3000   -80.5000   -79.7000   -78.9000   -79.7000   -78.9000   -78.1000   -79.7000   -78.9000   -78.1000   -78.1000   -75.8000   -74.2000   -79.7000   -78.1000   -78.1000   -76.6000   -74.2000   -72.7000   -72.7000   -75.0000   -73.4000   -73.4000   -76.6000   -75.0000   -68.8000   -67.2000   -70.3000   -71.9000   -69.5000   -68.8000   -68.0000   -68.8000   -68.0000   -68.8000   -69.5000   -67.2000   -66.4000   -66.4000   -65.6000   -65.6000   -65.6000   -64.8000   -60.9000   -63.3000   -62.5000   -61.7000   -58.6000   -58.6000   -60.9000   -62.5000   -62.5000   -61.7000   -60.9000   -58.6000   -57.0000   -58.6000   -58.6000   -60.2000   -60.9000   -57.0000   -55.5000   -53.9000   -53.1000   -52.3000   -51.6000   -50.8000   -51.6000   -50.8000   -56.3000   -57.8000   -60.2000   -63.3000   -66.4000   -68.0000   -71.9000   -77.3000   -78.1000   -76.6000   -76.6000   -77.3000   -82.8000   -85.9000   -84.4000   -85.9000   -86.7000   -89.1000   -89.8000   -91.4000   -93.0000   -93.8000   -94.5000   -94.5000   -92.2000   -93.0000   -95.3000   -93.8000   -93.8000   -95.3000   -93.0000   -93.0000   -90.6000   -89.1000   -89.1000   -85.9000   -86.7000   -89.1000   -87.5000   -89.1000   -91.4000   -91.4000   -88.3000   -87.5000   -87.5000   -82.8000   -84.4000   -80.5000   -80.5000   -79.7000   -80.5000   -82.0000   -82.0000   -79.7000   -76.6000   -77.3000   -78.1000   -77.3000   -75.8000   -73.4000   -70.3000   -70.3000   -70.3000   -71.1000   -70.3000   -68.8000   -68.8000   -66.4000   -64.8000   -68.8000   -69.5000   -68.0000   -67.2000   -65.6000   -65.6000   -65.6000   -64.8000   -64.8000   -64.8000   -66.4000   -68.8000   -71.9000   -68.0000   -68.0000   -69.5000   -67.2000   -67.2000   -68.8000   -69.5000   -64.8000   -65.6000   -61.7000   -63.3000   -64.1000   -65.6000   -64.8000   -65.6000   -68.0000   -68.8000   -72.7000   -75.0000   -74.2000   -75.8000   -77.3000   -77.3000   -81.3000   -81.3000   -82.8000   -82.8000   -85.2000   -83.6000   -83.6000   -84.4000   -85.9000   -85.9000   -84.4000   -83.6000   -85.2000   -83.6000   -85.2000   -85.2000   -85.2000   -83.6000   -79.7000   -78.9000   -78.9000   -78.1000   -75.0000   -74.2000   -71.1000   -73.4000   -76.6000   -73.4000   -70.3000   -73.4000   -74.2000   -71.9000   -71.9000   -68.8000   -67.2000   -64.8000   -64.1000   -64.8000   -62.5000   -60.2000   -61.7000   -57.8000   -58.6000   -61.7000   -60.9000   -60.9000   -59.4000   -59.4000   -56.3000   -53.9000   -49.2000   -43.8000   -41.4000   -41.4000   -48.4000   -56.3000   -57.8000   -57.0000   -57.8000   -57.8000   -57.0000   -57.0000   -57.8000   -56.3000   -53.1000   -52.3000   -52.3000   -52.3000   -52.3000   -53.1000   -50.0000   -46.9000   -45.3000   -44.5000   -49.2000   -47.7000   -47.7000   -50.8000   -53.1000   -53.1000   -53.9000   -54.7000   -56.3000   -60.9000   -60.9000   -62.5000   -63.3000   -63.3000   -64.8000   -67.2000   -68.0000   -71.1000   -74.2000   -73.4000   -72.7000   -72.7000   -71.9000   -71.9000   -71.9000   -75.0000   -76.6000   -75.0000   -76.6000   -75.0000   -75.0000   -73.4000   -74.2000   -73.4000   -70.3000   -69.5000   -68.8000   -72.7000   -72.7000   -74.2000   -71.1000   -71.1000   -68.8000   -67.2000   -60.9000   -61.7000   -64.1000   -63.3000   -62.5000   -64.1000   -65.6000   -65.6000   -60.2000   -60.2000   -60.2000   -60.9000   -58.6000   -57.0000   -56.3000   -55.5000   -55.5000   -55.5000   -58.6000   -60.9000   -64.1000   -58.6000   -56.3000   -56.3000   -54.7000   -55.5000   -60.2000   -59.4000   -61.7000   -63.3000   -61.7000   -60.9000   -60.9000   -62.5000   -64.1000   -65.6000   -67.2000   -67.2000   -67.2000   -69.5000   -69.5000   -66.4000   -67.2000   -69.5000   -70.3000   -68.0000   -68.0000   -68.8000   -68.8000   -68.8000   -69.5000   -67.2000   -69.5000   -70.3000   -71.1000   -71.1000   -71.1000   -70.3000   -70.3000   -68.8000   -68.0000   -67.2000   -70.3000   -68.8000   -66.4000   -65.6000   -65.6000   -70.3000   -69.5000   -68.8000   -70.3000   -71.9000   -68.8000   -69.5000   -75.0000   -75.8000   -74.2000   -73.4000   -71.1000   -72.7000   -75.8000   -74.2000   -75.0000   -77.3000   -74.2000   -76.6000   -79.7000   -78.9000   -78.9000   -79.7000   -81.3000   -81.3000   -82.0000   -82.0000   -78.9000   -77.3000   -76.6000   -76.6000   -78.9000   -78.9000   -80.5000   -81.3000   -80.5000   -80.5000   -81.3000   -80.5000   -81.3000   -78.9000   -76.6000   -76.6000   -73.4000   -75.8000   -78.9000   -78.1000   -75.8000   -75.8000   -73.4000   -78.9000   -81.3000   -81.3000   -83.6000   -82.8000   -82.8000   -79.7000   -78.9000   -79.7000   -79.7000   -80.5000   -81.3000   -78.9000   -75.0000   -75.8000   -78.1000   -79.7000   -81.3000   -79.7000   -79.7000   -78.1000   -78.9000   -81.3000   -79.7000   -78.9000   -77.3000   -78.1000   -78.1000   -78.1000   -79.7000   -80.5000   -78.1000   -78.9000   -79.7000   -79.7000   -78.1000   -76.6000   -76.6000   -77.3000   -76.6000   -75.8000   -77.3000   -73.4000   -72.7000   -76.6000   -74.2000   -71.9000   -71.9000   -71.9000   -75.0000   -75.0000   -75.0000   -73.4000   -74.2000   -70.3000   -68.8000   -68.0000   -67.2000   -68.8000   -66.4000   -64.8000   -65.6000   -64.8000   -64.1000   -64.1000   -65.6000   -67.2000   -65.6000   -63.3000   -60.2000   -58.6000   -59.4000   -59.4000   -61.7000   -59.4000   -60.2000   -59.4000   -61.7000   -60.9000   -60.9000   -61.7000   -62.5000   -63.3000   -62.5000   -64.1000   -61.7000   -65.6000   -67.2000   -68.8000   -68.8000   -69.5000   -69.5000   -70.3000   -71.1000   -69.5000   -71.1000   -69.5000   -68.8000   -70.3000   -70.3000   -71.1000   -71.9000   -73.4000   -73.4000   -74.2000   -73.4000   -73.4000   -73.4000   -71.1000   -74.2000   -73.4000   -73.4000   -75.0000   -77.3000   -74.2000   -72.7000   -75.0000   -74.2000   -70.3000   -72.7000   -72.7000   -68.0000   -68.8000   -71.1000   -70.3000   -67.2000   -64.1000   -63.3000   -65.6000   -68.8000   -69.5000   -68.8000   -66.4000   -65.6000   -66.4000   -64.8000   -64.1000   -64.8000   -64.8000   -66.4000   -67.2000   -67.2000   -67.2000   -68.0000   -69.5000   -69.5000   -70.3000   -72.7000   -74.2000   -72.7000   -75.8000   -78.1000   -78.1000   -80.5000   -82.0000   -81.3000   -79.7000   -80.5000   -82.0000   -81.3000   -82.0000   -84.4000   -82.0000   -80.5000   -81.3000   -84.4000   -86.7000   -88.3000   -84.4000   -84.4000   -84.4000   -85.2000   -84.4000   -83.6000   -81.3000   -81.3000   -85.2000   -83.6000   -82.8000   -84.4000   -85.2000   -84.4000   -82.8000   -81.3000   -79.7000   -78.1000   -78.1000   -77.3000   -78.1000   -74.2000   -72.7000   -75.8000   -77.3000   -76.6000   -77.3000   -75.0000   -74.2000   -73.4000   -71.9000   -68.8000   -69.5000   -69.5000   -67.2000   -66.4000   -68.8000   -67.2000   -68.8000   -71.1000   -72.7000   -71.9000   -69.5000   -70.3000   -70.3000   -69.5000   -68.8000   -68.0000   -68.8000   -68.8000   -68.8000   -68.0000   -64.8000   -66.4000   -67.2000   -66.4000   -67.2000   -68.0000   -69.5000   -68.0000   -67.2000   -71.1000   -71.1000   -69.5000   -68.0000   -66.4000   -64.1000   -64.8000   -68.0000   -70.3000   -70.3000   -68.8000   -68.8000   -68.0000   -68.0000   -73.4000   -74.2000   -79.7000   -82.8000   -82.8000   -80.5000   -82.0000   -82.0000   -83.6000   -86.7000   -89.8000   -89.1000   -86.7000   -87.5000   -86.7000   -85.2000   -89.1000   -89.8000   -88.3000   -89.1000   -88.3000   -85.9000   -85.9000   -83.6000   -86.7000   -89.8000   -85.2000   -82.8000   -82.0000   -78.9000   -81.3000   -83.6000   -82.0000   -82.0000   -82.0000   -81.3000   -78.1000   -75.8000   -76.6000   -75.8000   -71.1000   -68.8000   -70.3000   -70.3000   -71.9000   -71.1000   -69.5000   -72.7000   -69.5000   -68.0000   -68.8000   -69.5000   -68.0000   -68.0000   -65.6000   -64.1000   -62.5000   -62.5000   -63.3000   -61.7000   -64.1000   -65.6000   -61.7000   -60.9000   -57.8000   -57.0000   -58.6000   -58.6000   -58.6000   -57.0000   -53.9000   -53.1000   -53.1000   -53.9000   -55.5000   -57.0000   -53.1000   -50.8000   -51.6000   -53.1000   -55.5000   -55.5000   -55.5000   -57.0000   -57.0000   -57.0000   -55.5000   -55.5000   -56.3000   -56.3000   -57.0000   -57.8000   -58.6000   -60.2000   -59.4000   -61.7000   -65.6000   -64.8000   -65.6000   -69.5000   -68.0000   -68.0000   -73.4000   -70.3000   -69.5000   -70.3000   -68.8000   -68.8000   -69.5000   -70.3000   -72.7000   -68.8000   -68.0000   -70.3000   -74.2000   -74.2000   -74.2000   -74.2000   -73.4000   -73.4000   -75.0000   -74.2000   -74.2000   -73.4000   -75.0000   -75.8000   -75.0000   -74.2000   -78.1000   -79.7000   -81.3000   -79.7000   -78.1000   -77.3000   -75.8000   -78.9000   -77.3000   -77.3000   -75.0000   -77.3000   -78.1000   -78.9000   -79.7000   -81.3000   -81.3000   -82.8000   -79.7000   -79.7000   -79.7000   -78.9000   -78.9000   -78.1000   -80.5000   -82.8000   -78.9000   -78.1000   -79.7000   -82.8000   -85.9000   -83.6000   -82.8000   -85.2000   -83.6000   -82.0000   -80.5000   -82.0000   -82.8000   -81.3000   -82.0000   -82.0000   -84.4000   -82.8000   -81.3000   -82.0000   -80.5000   -80.5000   -78.9000   -78.9000   -80.5000   -81.3000   -83.6000   -82.8000   -81.3000   -78.9000   -77.3000   -76.6000   -78.9000   -79.7000   -78.1000   -78.9000   -76.6000   -78.9000   -77.3000   -78.9000   -82.0000   -79.7000   -77.3000   -78.1000   -78.9000   -78.9000   -79.7000   -79.7000   -79.7000   -78.9000   -77.3000   -77.3000   -75.8000   -75.0000   -75.0000   -75.0000   -75.8000   -76.6000   -75.8000   -78.1000   -77.3000   -75.0000   -78.1000   -77.3000   -75.0000   -74.2000   -75.8000   -75.8000   -73.4000   -72.7000   -73.4000   -76.6000   -75.0000   -72.7000   -72.7000   -71.9000   -73.4000   -74.2000   -71.9000   -70.3000   -71.1000   -67.2000   -69.5000   -71.9000   -75.0000   -75.0000   -73.4000   -72.7000   -71.9000   -72.7000   -74.2000   -70.3000   -70.3000   -69.5000   -69.5000   -68.8000   -68.8000   -68.8000   -71.9000   -75.8000   -73.4000   -71.9000   -72.7000   -71.1000   -72.7000   -74.2000   -71.1000   -71.9000   -72.7000   -71.9000   -70.3000   -73.4000   -75.8000   -74.2000   -71.9000   -69.5000   -70.3000   -70.3000   -69.5000   -68.8000   -71.9000   -74.2000   -71.1000   -68.8000   -69.5000   -72.7000   -73.4000   -73.4000   -73.4000   -74.2000   -73.4000   -70.3000   -72.7000   -72.7000   -72.7000   -71.9000   -74.2000   -72.7000   -75.8000   -74.2000   -73.4000   -71.1000   -70.3000   -68.0000   -70.3000   -71.1000   -74.2000   -71.9000   -71.9000   -75.0000   -74.2000   -75.0000   -74.2000   -72.7000   -76.6000   -77.3000   -75.8000   -75.0000   -76.6000   -77.3000   -79.7000   -80.5000   -82.0000   -85.2000   -82.8000   -81.3000   -81.3000   -82.0000   -85.2000   -87.5000   -86.7000   -86.7000   -85.9000   -87.5000   -85.9000   -84.4000   -90.6000   -90.6000   -86.7000   -85.2000   -87.5000   -85.9000   -85.2000   -86.7000   -84.4000   -85.2000   -85.9000   -85.2000   -82.0000   -82.8000   -82.0000   -81.3000   -82.0000   -82.8000   -81.3000   -77.3000   -77.3000   -78.1000   -77.3000   -80.5000   -82.0000   -78.9000   -77.3000   -76.6000   -76.6000   -75.8000   -74.2000   -77.3000   -76.6000   -75.0000   -75.8000   -75.0000   -77.3000   -78.9000   -78.1000   -74.2000   -73.4000   -71.9000   -72.7000   -73.4000   -72.7000   -72.7000   -71.1000   -70.3000   -71.1000   -69.5000   -71.1000   -72.7000   -71.9000   -72.7000   -71.9000   -70.3000   -69.5000   -71.1000   -70.3000   -71.1000   -71.1000   -68.8000   -73.4000   -71.1000   -68.0000   -68.8000   -69.5000   -69.5000   -70.3000   -73.4000   -75.8000   -75.0000   -76.6000   -76.6000   -75.8000   -72.7000   -75.0000   -74.2000   -74.2000   -75.8000   -76.6000   -75.8000   -79.7000   -82.0000   -82.8000   -84.4000   -87.5000   -84.4000   -83.6000   -85.9000   -85.2000   -85.2000   -89.1000   -87.5000   -88.3000   -91.4000   -87.5000   -89.8000   -87.5000   -85.9000   -85.9000   -86.7000   -85.2000   -82.8000   -80.5000   -84.4000   -82.0000   -80.5000   -80.5000   -80.5000   -82.0000   -81.3000   -81.3000   -82.0000   -82.8000   -83.6000   -85.9000   -87.5000   -88.3000   -86.7000   -85.9000   -83.6000   -82.8000   -82.0000   -79.7000   -79.7000   -79.7000   -80.5000   -80.5000   -78.1000   -76.6000   -75.0000   -77.3000   -79.7000   -78.9000   -78.9000   -77.3000   -75.0000   -71.1000   -72.7000   -72.7000   -73.4000   -71.9000   -70.3000   -68.0000   -68.0000   -65.6000   -66.4000   -66.4000   -67.2000   -71.1000   -71.9000   -67.2000   -67.2000   -65.6000   -65.6000   -66.4000   -64.8000   -64.1000   -63.3000   -64.8000   -64.8000   -67.2000   -65.6000   -64.8000   -66.4000   -65.6000   -64.1000   -65.6000   -63.3000   -63.3000   -65.6000   -66.4000   -63.3000   -62.5000   -63.3000   -62.5000   -60.2000   -61.7000   -63.3000   -60.2000   -58.6000   -56.3000   -56.3000   -57.8000   -59.4000   -60.9000   -57.8000   -61.7000   -60.9000   -60.2000   -60.9000   -61.7000   -60.2000   -60.2000   -63.3000   -64.1000   -64.8000   -67.2000   -68.8000   -69.5000   -69.5000   -68.0000   -70.3000   -68.0000   -68.8000   -68.0000   -68.8000   -70.3000   -71.9000   -74.2000   -73.4000   -72.7000   -74.2000   -70.3000   -68.0000   -74.2000   -74.2000   -70.3000   -71.9000   -72.7000   -71.9000   -71.9000   -71.1000   -73.4000   -70.3000   -70.3000   -73.4000   -69.5000   -68.8000   -73.4000   -71.1000   -71.9000   -74.2000   -73.4000   -72.7000   -71.1000   -69.5000   -70.3000   -71.1000   -71.9000   -71.9000   -70.3000   -72.7000   -72.7000   -73.4000   -74.2000   -75.8000   -75.8000   -75.0000   -73.4000   -69.5000   -69.5000   -71.1000   -73.4000   -73.4000   -71.1000   -71.9000   -74.2000   -72.7000   -75.8000   -77.3000   -74.2000   -73.4000   -71.9000   -71.9000   -73.4000   -75.0000   -73.4000   -75.0000   -71.9000   -73.4000   -72.7000   -70.3000   -69.5000   -69.5000   -69.5000   -70.3000   -70.3000   -69.5000   -70.3000   -70.3000   -71.9000   -71.9000   -66.4000   -63.3000   -64.1000   -64.1000   -62.5000   -64.8000   -63.3000   -63.3000   -61.7000   -59.4000   -60.2000   -64.1000   -64.1000   -63.3000   -60.9000   -60.2000   -61.7000   -59.4000   -57.0000   -59.4000   -60.2000   -61.7000   -61.7000   -60.2000   -61.7000   -58.6000   -59.4000   -57.0000   -55.5000   -53.9000   -55.5000   -54.7000   -56.3000   -58.6000   -59.4000   -58.6000   -58.6000   -64.1000   -66.4000   -71.9000   -77.3000   -78.1000   -78.9000   -81.3000   -85.9000   -86.7000   -89.1000   -89.8000   -91.4000   -93.0000   -93.0000   -93.0000   -96.9000   -96.9000   -96.1000   -97.7000   -96.1000   -93.8000   -93.8000   -94.5000   -94.5000   -93.8000   -93.8000   -93.0000   -90.6000   -92.2000   -89.8000   -85.9000   -87.5000   -89.1000   -86.7000   -85.9000   -84.4000   -82.0000   -81.3000   -82.0000   -82.0000   -82.0000   -82.0000   -78.9000   -78.1000   -73.4000   -70.3000   -72.7000   -73.4000   -74.2000   -73.4000   -75.0000   -74.2000   -73.4000   -68.8000   -69.5000   -70.3000   -68.8000   -68.0000   -71.1000   -73.4000   -71.9000   -71.9000   -70.3000   -72.7000   -71.9000   -73.4000   -71.1000   -69.5000   -70.3000   -70.3000   -72.7000   -72.7000   -71.9000   -74.2000   -72.7000   -75.0000   -74.2000   -73.4000   -73.4000   -74.2000   -78.9000   -79.7000   -81.3000   -82.8000   -80.5000   -79.7000   -80.5000   -82.8000   -82.8000   -81.3000   -78.1000   -78.9000   -81.3000   -84.4000   -85.2000   -82.0000   -81.3000   -80.5000   -81.3000   -79.7000   -78.9000   -85.2000   -84.4000   -78.9000   -81.3000   -82.0000   -82.0000   -78.9000   -78.9000   -79.7000   -75.8000   -75.8000   -74.2000   -71.9000   -71.9000   -71.1000   -71.1000   -71.9000   -71.9000   -70.3000   -70.3000   -70.3000   -74.2000   -72.7000   -68.8000   -67.2000   -68.0000   -64.8000   -65.6000   -67.2000   -68.0000   -71.1000   -71.1000   -68.0000   -68.8000   -67.2000   -64.8000   -63.3000   -66.4000   -65.6000   -62.5000   -63.3000   -64.1000   -64.1000   -61.7000   -60.2000   -63.3000   -64.1000   -63.3000   -61.7000   -61.7000   -65.6000   -62.5000   -64.1000   -63.3000   -63.3000   -62.5000   -61.7000   -63.3000   -64.1000   -62.5000   -60.2000   -60.2000   -60.2000   -60.9000   -65.6000   -67.2000   -64.8000   -63.3000   -62.5000   -61.7000   -62.5000   -65.6000   -64.8000   -61.7000   -60.2000   -62.5000   -57.8000   -58.6000   -60.9000   -64.8000   -64.8000   -66.4000   -64.8000   -64.8000   -62.5000   -64.8000   -62.5000   -62.5000   -60.2000   -57.8000   -60.9000   -60.2000   -60.9000   -62.5000   -60.9000   -64.1000   -62.5000   -64.1000   -63.3000   -64.1000   -64.8000   -63.3000   -64.8000   -63.3000   -62.5000   -63.3000   -61.7000   -60.2000   -64.1000   -64.8000   -64.8000   -62.5000   -62.5000   -64.1000   -64.8000   -66.4000   -67.2000   -69.5000   -68.8000   -68.0000   -68.0000   -68.0000   -68.0000   -68.8000   -69.5000   -68.0000   -67.2000   -66.4000   -69.5000   -72.7000   -72.7000   -72.7000   -67.2000   -67.2000   -69.5000   -72.7000   -71.1000   -70.3000   -69.5000   -69.5000   -69.5000   -71.9000   -72.7000   -72.7000   -72.7000   -72.7000   -68.8000   -68.0000   -70.3000   -68.8000   -68.8000   -70.3000   -71.9000   -72.7000   -70.3000   -70.3000   -71.9000   -71.9000   -71.9000   -73.4000   -69.5000   -70.3000   -71.9000   -71.1000   -68.8000   -68.0000   -68.8000   -68.8000   -69.5000   -71.9000   -71.1000   -70.3000   -72.7000   -73.4000   -70.3000   -68.8000   -70.3000   -71.1000   -71.9000   -75.8000   -70.3000   -67.2000   -66.4000   -66.4000   -68.0000   -68.0000   -68.8000   -68.0000   -65.6000   -66.4000   -66.4000   -65.6000   -64.1000   -66.4000   -66.4000   -70.3000   -68.0000   -69.5000   -70.3000   -72.7000   -71.1000   -72.7000   -75.8000   -76.6000   -77.3000   -80.5000   -81.3000   -85.9000   -90.6000   -90.6000   -92.2000   -92.2000   -94.5000   -96.9000   -98.4000   -97.7000   -99.2000  -100.0000  -100.0000   -99.2000  -102.3000  -104.7000  -104.7000  -108.6000  -107.0000  -104.7000  -104.7000  -103.1000  -102.3000  -104.7000  -103.1000  -102.3000  -103.9000  -103.9000  -104.7000  -103.1000  -100.8000   -99.2000   -96.9000   -94.5000   -93.8000   -93.0000   -93.8000   -91.4000   -90.6000   -90.6000   -86.7000   -85.2000   -85.2000   -80.5000   -79.7000   -82.8000   -82.0000   -80.5000   -80.5000   -81.3000   -81.3000   -82.8000   -84.4000   -88.3000   -83.6000   -82.0000   -83.6000   -85.2000   -87.5000   -89.8000   -89.8000   -89.1000   -87.5000   -86.7000   -87.5000   -87.5000   -88.3000   -88.3000   -86.7000   -88.3000   -88.3000   -85.9000   -87.5000   -83.6000   -86.7000   -88.3000   -85.9000   -82.0000   -81.3000   -79.7000   -78.1000   -78.9000   -78.1000   -76.6000   -77.3000   -78.9000   -78.1000   -76.6000   -75.0000   -74.2000   -71.9000   -75.0000   -70.3000   -68.0000   -68.0000   -67.2000   -66.4000   -67.2000   -70.3000   -67.2000   -64.1000   -64.1000   -61.7000   -57.8000   -60.9000   -61.7000   -60.9000   -59.4000   -56.3000   -57.0000   -55.5000   -53.9000   -53.1000   -53.9000   -50.0000   -50.8000   -53.1000   -50.8000   -51.6000   -48.4000   -49.2000   -49.2000   -46.9000   -46.1000   -47.7000   -49.2000   -46.9000   -50.0000   -50.0000   -50.8000   -56.3000   -57.8000   -62.5000   -60.9000   -60.2000   -62.5000   -65.6000   -67.2000   -65.6000   -68.0000   -64.1000   -66.4000   -68.8000   -68.0000   -68.0000   -71.1000   -69.5000   -68.8000   -69.5000   -68.0000   -69.5000   -71.1000   -71.9000   -73.4000   -72.7000   -68.0000   -68.0000   -67.2000   -66.4000   -68.0000   -68.8000   -68.8000   -67.2000   -66.4000   -68.8000   -68.0000   -64.8000   -64.1000   -62.5000   -59.4000   -60.2000   -57.8000   -55.5000   -56.3000   -57.0000   -60.9000   -57.8000   -54.7000   -55.5000   -57.0000   -58.6000   -60.9000   -63.3000   -62.5000   -63.3000   -64.8000   -65.6000   -66.4000   -66.4000   -69.5000   -67.2000   -67.2000   -67.2000   -69.5000   -71.9000   -76.6000   -81.3000   -82.8000   -82.0000   -85.2000   -86.7000   -83.6000   -81.3000   -79.7000   -81.3000   -81.3000   -79.7000   -79.7000   -75.8000   -77.3000   -78.9000   -75.8000 