   115.6000   119.5000   123.4000   128.9000   132.0000   135.2000   135.2000   138.3000   143.0000   148.4000   153.1000   159.4000   166.4000   164.8000   167.2000   173.4000   173.4000   173.4000   174.2000   178.1000   178.1000   186.7000   193.0000   195.3000   200.0000   198.4000   201.6000   204.7000   207.8000   210.2000   213.3000   217.2000   213.3000   218.0000   223.4000   229.7000   229.7000   228.9000   232.0000   233.6000   236.7000   238.3000   239.8000   242.2000   244.5000   247.7000   249.2000   255.5000   259.4000   261.7000   268.0000   269.5000   269.5000   268.8000   272.7000   276.6000   271.9000   273.4000   279.7000   280.5000   281.3000   287.5000   285.2000   279.7000   280.5000   285.2000   286.7000   293.0000   295.3000   301.6000   301.6000   297.7000   296.1000   299.2000   302.3000   304.7000   306.3000   310.2000   310.2000   305.5000   303.9000   303.9000   294.5000   293.0000   299.2000   301.6000   304.7000   300.8000   307.8000   307.8000   310.2000   314.8000   317.2000   321.1000   325.0000   329.7000   334.4000   340.6000   344.5000   345.3000   351.6000   357.8000   359.4000   364.1000   369.5000   375.0000   375.0000   381.3000   385.9000   391.4000   388.3000   389.8000   390.6000   391.4000   395.3000   396.1000   394.5000   393.8000   389.1000   384.4000   382.0000   377.3000   368.8000   360.9000   350.0000   335.2000   327.3000   318.0000   307.8000   303.1000   305.5000   302.3000   300.8000   302.3000   301.6000   296.9000   293.8000   291.4000   288.3000   282.0000   278.1000   276.6000   271.1000   271.1000   268.0000   261.7000   260.2000   260.9000   257.0000   258.6000   264.8000   269.5000   271.9000   279.7000   282.0000   284.4000   284.4000   289.1000   289.1000   287.5000   295.3000   300.8000   303.1000   303.1000   300.8000   305.5000   309.4000   311.7000   314.1000   318.0000   319.5000   321.9000   322.7000   325.0000   329.7000   330.5000   332.0000   333.6000   333.6000   335.9000   340.6000   344.5000   344.5000   343.8000   350.0000   351.6000   351.6000   354.7000   354.7000   355.5000   357.8000   358.6000   357.0000   359.4000   358.6000   358.6000   357.8000   359.4000   360.2000   360.9000   361.7000   357.8000   353.9000   353.9000   357.8000   359.4000   362.5000   360.9000   360.2000   359.4000   353.9000   352.3000   356.3000   353.1000   351.6000   353.9000   349.2000   350.0000   350.0000   348.4000   348.4000   342.2000   335.9000   332.0000   333.6000   332.8000   332.0000   332.0000   321.1000   313.3000   314.1000   311.7000   309.4000   308.6000   304.7000   301.6000   301.6000   296.1000   286.7000   282.8000   277.3000   270.3000   271.1000   274.2000   268.8000   268.8000   260.2000   252.3000   249.2000   249.2000   245.3000   239.8000   234.4000   229.7000   222.7000   221.1000   218.0000   210.2000   207.0000   199.2000   193.0000   189.8000   190.6000   189.1000   178.9000   169.5000   160.9000   153.9000   148.4000   146.9000   145.3000   135.9000   129.7000   124.2000   111.7000   101.6000    98.4000    93.8000    90.6000    88.3000    78.9000    71.9000    65.6000    56.3000    49.2000    38.3000    33.6000    21.9000    20.3000    16.4000    11.7000     2.3000    -5.5000   -20.3000   -28.1000   -35.9000   -47.7000   -55.5000   -60.2000   -68.8000   -75.8000   -82.8000   -90.6000  -103.1000  -112.5000  -119.5000  -123.4000  -128.1000  -135.2000  -145.3000  -151.6000  -158.6000  -168.8000  -181.3000  -184.4000  -188.3000  -196.1000  -201.6000  -206.3000  -210.9000  -221.1000  -232.0000  -235.2000  -244.5000  -249.2000  -258.6000  -271.9000  -286.7000  -319.5000  -383.6000  -483.6000  -573.4000  -583.6000  -532.8000  -453.1000  -375.0000  -315.6000  -275.0000  -250.0000  -228.9000  -214.8000  -200.8000  -185.2000  -172.7000  -167.2000  -159.4000  -152.3000  -150.0000  -146.9000  -145.3000  -145.3000  -145.3000  -146.9000  -147.7000  -151.6000  -156.3000  -157.8000  -158.6000  -165.6000  -172.7000  -178.1000  -180.5000  -185.2000  -191.4000  -197.7000  -200.0000  -210.9000  -216.4000  -221.9000  -229.7000  -233.6000  -238.3000  -247.7000  -250.0000  -258.6000  -264.8000  -274.2000  -278.1000  -285.9000  -293.0000  -300.8000  -300.8000  -307.8000  -312.5000  -314.8000  -321.9000  -328.1000  -332.8000  -339.1000  -343.0000  -349.2000  -353.1000  -356.3000  -367.2000  -367.2000  -369.5000  -375.8000  -378.1000  -380.5000  -385.9000  -389.1000  -393.8000  -403.1000  -406.3000  -407.0000  -416.4000  -418.0000  -416.4000  -419.5000  -426.6000  -428.9000  -437.5000  -443.8000  -445.3000  -449.2000  -448.4000  -445.3000  -451.6000  -456.3000  -462.5000  -466.4000  -468.0000  -471.9000  -478.1000  -478.1000  -475.0000  -482.8000  -484.4000  -485.2000  -488.3000  -491.4000  -495.3000  -500.8000  -500.8000  -503.1000  -506.3000  -507.8000  -507.0000  -510.2000  -510.9000  -513.3000  -514.1000  -518.0000  -519.5000  -515.6000  -516.4000  -518.0000  -521.1000  -523.4000  -524.2000  -525.0000  -523.4000  -523.4000  -524.2000  -523.4000  -525.0000  -528.9000  -532.0000  -532.0000  -532.0000  -532.0000  -525.0000  -527.3000  -525.0000  -525.8000  -528.1000  -529.7000  -527.3000  -530.5000  -530.5000  -525.8000  -522.7000  -523.4000  -520.3000  -521.9000  -519.5000  -518.8000  -518.0000  -515.6000  -516.4000  -516.4000  -513.3000  -514.8000  -514.8000  -516.4000  -512.5000  -508.6000  -506.3000  -502.3000  -499.2000  -493.8000  -497.7000  -495.3000  -492.2000  -491.4000  -489.8000  -486.7000  -483.6000  -482.0000  -486.7000  -483.6000  -485.2000  -489.1000  -486.7000  -481.3000  -479.7000  -477.3000  -474.2000  -475.0000  -470.3000  -468.8000  -466.4000  -466.4000  -467.2000  -464.1000  -463.3000  -453.9000  -453.9000  -450.8000  -449.2000  -450.0000  -445.3000  -443.0000  -442.2000  -439.8000  -430.5000  -428.1000  -428.9000  -421.9000  -421.9000  -422.7000  -421.9000  -421.9000  -418.0000  -414.8000  -411.7000  -411.7000  -406.3000  -403.9000  -404.7000  -401.6000  -404.7000  -403.1000  -393.8000  -392.2000  -385.2000  -382.0000  -380.5000  -378.9000  -378.1000  -373.4000  -369.5000  -367.2000  -363.3000  -357.0000  -353.9000  -348.4000  -350.0000  -347.7000  -347.7000  -339.1000  -332.8000  -331.3000  -329.7000  -327.3000  -321.1000  -318.0000  -318.0000  -312.5000  -302.3000  -298.4000  -295.3000  -289.1000  -282.0000  -285.2000  -284.4000  -280.5000  -276.6000  -270.3000  -264.8000  -260.2000  -260.2000  -250.8000  -246.9000  -246.1000  -248.4000  -240.6000  -237.5000  -232.0000  -227.3000  -225.0000  -224.2000  -212.5000  -210.2000  -202.3000  -202.3000  -200.0000  -196.9000  -194.5000  -183.6000  -184.4000  -177.3000  -173.4000  -167.2000  -165.6000  -158.6000  -155.5000  -150.8000  -149.2000  -143.0000  -138.3000  -135.2000  -134.4000  -129.7000  -126.6000  -121.1000  -110.9000  -108.6000  -104.7000   -96.9000   -94.5000   -91.4000   -81.3000   -78.1000   -68.8000   -60.2000   -54.7000   -49.2000   -40.6000   -33.6000   -28.9000   -21.9000   -16.4000    -7.8000     2.3000    10.2000    11.7000    19.5000    24.2000    29.7000    35.2000    41.4000    46.9000    55.5000    59.4000    69.5000    75.0000    78.1000    77.3000    86.7000    94.5000   100.8000   108.6000   118.8000   120.3000   121.1000   128.1000   133.6000   134.4000   140.6000   144.5000   153.9000   156.3000   165.6000   170.3000   176.6000   179.7000   180.5000   188.3000   193.0000   198.4000   206.3000   212.5000   209.4000   212.5000   215.6000   220.3000   223.4000   227.3000   225.8000   232.8000   235.2000   239.8000   243.8000   250.0000   247.7000   248.4000   252.3000   258.6000   258.6000   262.5000   265.6000   269.5000   271.1000   271.1000   272.7000   271.9000   269.5000   275.0000   278.9000   280.5000   286.7000   291.4000   296.1000   299.2000   304.7000   309.4000   309.4000   313.3000   314.1000   315.6000   319.5000   317.2000   309.4000   308.6000   304.7000   297.7000   294.5000   293.0000   282.0000   275.0000   271.1000   268.8000   261.7000   254.7000   251.6000   246.1000   235.9000   226.6000   217.2000   210.2000   192.2000   180.5000   172.7000   167.2000   161.7000   154.7000   148.4000   140.6000   132.0000   126.6000   126.6000   126.6000   125.0000   131.3000   139.8000   150.0000   156.3000   164.8000   175.0000   184.4000   188.3000   198.4000   214.1000   221.9000   232.8000   247.7000   259.4000   267.2000   276.6000   288.3000   299.2000   313.3000   322.7000   332.8000   343.0000   354.7000   360.9000   367.2000   375.8000   384.4000   394.5000   401.6000   414.1000   420.3000   424.2000   431.3000   435.2000   438.3000   441.4000   448.4000   453.9000   455.5000   460.2000   465.6000   461.7000   463.3000   469.5000   471.1000   473.4000   478.1000   480.5000   481.3000   482.8000   483.6000   482.8000   485.9000   493.0000   496.1000   497.7000   507.0000   503.1000   506.3000   505.5000   507.0000   507.8000   507.0000   508.6000   507.0000   509.4000   509.4000   507.0000   501.6000   500.0000   493.8000   489.8000   483.6000   482.8000   478.9000   475.8000   468.8000   460.2000   445.3000   435.9000   423.4000   416.4000   413.3000   404.7000   393.0000   383.6000   376.6000   360.9000   341.4000   328.1000   325.0000   328.1000   316.4000   303.1000   285.2000   266.4000   246.1000   231.3000   217.2000   207.0000   193.8000   176.6000   157.0000   130.5000   102.3000    76.6000    61.7000    49.2000    48.4000    43.8000    43.0000    46.9000    57.0000    61.7000    69.5000    81.3000    94.5000   106.3000   114.1000   121.9000   135.2000   145.3000   155.5000   163.3000   173.4000   182.8000   193.8000   203.1000   210.2000   219.5000   227.3000   235.2000   240.6000   246.1000   250.8000   251.6000   251.6000   250.8000   251.6000   253.9000   250.0000   251.6000   254.7000   260.2000   267.2000   276.6000   280.5000   287.5000   294.5000   305.5000   316.4000   328.1000   332.8000   335.2000   344.5000   357.8000   362.5000   367.2000   379.7000   378.1000   381.3000   386.7000   389.1000   395.3000   399.2000   403.9000   402.3000   408.6000   408.6000   407.8000   407.0000   403.1000   401.6000   398.4000   395.3000   393.8000   389.1000   385.9000   380.5000   374.2000   361.7000   357.0000   351.6000   343.8000   337.5000   337.5000   325.0000   319.5000   318.8000   312.5000   307.0000   307.0000   297.7000   289.8000   285.9000   274.2000   265.6000   258.6000   251.6000   228.9000   200.0000   157.0000   110.9000    70.3000    49.2000    32.0000    24.2000    23.4000    21.9000     8.6000   -12.5000   -31.3000   -56.3000   -89.1000  -118.0000  -149.2000  -179.7000  -209.4000  -235.9000  -262.5000  -289.1000  -325.8000  -372.7000  -427.3000  -475.0000  -514.1000  -546.1000  -564.8000  -587.5000  -613.3000  -640.6000  -674.2000  -712.5000  -743.0000  -764.8000  -778.1000  -783.6000  -786.7000  -779.7000  -766.4000  -754.7000  -745.3000  -727.3000  -711.7000  -698.4000  -681.3000  -657.8000  -636.7000  -613.3000  -585.9000  -567.2000  -546.1000  -525.8000  -508.6000  -481.3000  -460.9000  -443.8000  -418.0000  -391.4000  -374.2000  -353.9000  -335.9000  -322.7000  -301.6000  -285.9000  -267.2000  -248.4000  -232.8000  -218.8000  -207.0000  -189.8000  -177.3000  -168.8000  -157.8000  -145.3000  -135.9000  -126.6000  -117.2000  -109.4000  -105.5000   -99.2000   -90.6000   -90.6000   -86.7000   -80.5000   -74.2000   -69.5000   -72.7000   -72.7000   -71.9000   -69.5000   -69.5000   -71.1000   -68.8000   -71.1000   -74.2000   -74.2000   -75.0000   -80.5000   -88.3000   -92.2000   -93.0000   -95.3000   -94.5000   -95.3000  -101.6000  -108.6000  -110.9000  -115.6000  -125.0000  -128.1000  -132.0000  -131.3000  -135.9000  -141.4000  -149.2000  -152.3000  -157.0000  -166.4000  -169.5000  -176.6000  -177.3000  -181.3000  -186.7000  -187.5000  -195.3000  -200.8000  -207.0000  -214.1000  -220.3000  -224.2000  -228.9000  -232.0000  -237.5000  -240.6000  -249.2000  -252.3000  -255.5000  -260.2000  -263.3000  -266.4000  -270.3000  -272.7000  -278.9000  -283.6000  -291.4000  -295.3000  -296.1000  -300.0000  -300.8000  -306.3000  -306.3000  -314.1000  -318.0000  -320.3000  -326.6000  -328.1000  -328.9000  -329.7000  -333.6000  -337.5000  -341.4000  -343.0000  -348.4000  -350.0000  -350.8000  -349.2000  -357.0000  -362.5000  -364.1000  -368.0000  -372.7000  -371.9000  -373.4000  -372.7000  -371.9000  -373.4000  -375.8000  -378.9000  -381.3000  -386.7000  -387.5000  -385.9000  -385.9000  -383.6000  -382.0000  -384.4000  -388.3000  -391.4000  -392.2000  -395.3000  -394.5000  -397.7000  -398.4000  -400.0000  -397.7000  -394.5000  -395.3000  -400.0000  -399.2000  -399.2000  -400.8000  -401.6000  -398.4000  -399.2000  -393.0000  -390.6000  -390.6000  -392.2000  -393.8000  -393.8000  -391.4000  -389.8000  -388.3000  -390.6000  -389.1000  -391.4000  -392.2000  -392.2000  -392.2000  -393.0000  -392.2000  -393.8000  -395.3000  -397.7000  -399.2000  -399.2000  -401.6000  -403.1000  -401.6000  -400.0000  -400.8000  -398.4000  -395.3000  -402.3000  -395.3000  -394.5000  -391.4000  -391.4000  -385.9000  -384.4000  -382.8000  -379.7000  -379.7000  -381.3000  -381.3000  -378.1000  -377.3000  -372.7000  -368.8000  -366.4000  -363.3000  -362.5000  -357.8000  -353.9000  -353.9000  -348.4000  -344.5000  -339.1000  -338.3000  -333.6000  -331.3000  -333.6000  -334.4000  -328.1000  -319.5000  -314.8000  -311.7000  -307.8000  -300.8000  -296.1000  -295.3000  -293.0000  -291.4000  -285.2000  -277.3000  -275.0000  -268.8000  -261.7000  -261.7000  -261.7000  -257.0000  -252.3000  -246.9000  -243.0000  -232.0000  -232.0000  -227.3000  -223.4000  -222.7000  -218.8000  -214.8000  -209.4000  -207.8000  -200.8000  -193.8000  -196.1000  -189.1000  -182.8000  -182.0000  -177.3000  -175.8000  -170.3000  -169.5000  -164.1000  -155.5000  -154.7000  -151.6000  -149.2000  -147.7000  -146.1000  -145.3000  -140.6000  -134.4000  -127.3000  -123.4000  -124.2000  -118.8000  -117.2000  -113.3000  -110.9000  -106.3000  -100.8000   -97.7000   -94.5000   -91.4000   -89.1000   -87.5000   -82.0000   -75.0000   -70.3000   -61.7000   -59.4000   -56.3000   -52.3000   -49.2000   -46.9000   -41.4000   -36.7000   -28.1000   -21.1000   -18.8000   -14.1000   -12.5000    -9.4000    -3.9000     4.7000     5.5000    10.2000    16.4000    16.4000    21.1000    28.1000    32.0000    35.2000    35.9000    40.6000    46.9000    55.5000    57.0000    59.4000    66.4000    68.0000    66.4000    71.1000    78.9000    79.7000    81.3000    82.8000    88.3000    94.5000    95.3000    99.2000   104.7000   109.4000   111.7000   121.1000   126.6000   128.1000   133.6000   138.3000   141.4000   144.5000   144.5000   146.9000   152.3000   158.6000   161.7000   160.2000   166.4000   171.9000   173.4000   175.0000   181.3000   182.8000   189.1000   192.2000   193.8000   193.8000   189.1000   191.4000   196.1000   200.8000   204.7000   214.1000   212.5000   219.5000   225.8000   224.2000   220.3000   223.4000   231.3000   235.9000   235.9000   243.0000   246.9000   250.8000   252.3000   252.3000   255.5000   259.4000   260.9000   267.2000   275.0000   275.8000   272.7000   273.4000   276.6000   279.7000   281.3000   283.6000   286.7000   282.8000   289.8000   296.1000   295.3000   296.1000   300.8000   301.6000   302.3000   306.3000   308.6000   310.2000   311.7000   314.8000   314.8000   318.8000   321.9000   325.0000   321.1000   328.9000   334.4000   334.4000   338.3000   340.6000   339.8000   340.6000   348.4000   351.6000   355.5000   356.3000   357.8000   357.0000   358.6000   357.0000   361.7000   363.3000   368.0000   371.1000   373.4000   375.8000   380.5000   379.7000   383.6000   381.3000   379.7000   379.7000   386.7000   387.5000   387.5000   392.2000   392.2000   393.0000   397.7000   399.2000   400.8000   403.1000   403.1000   406.3000   409.4000   407.8000   407.8000   409.4000   403.9000   403.9000   404.7000   407.0000   407.0000   407.8000   407.8000   407.0000   403.1000   403.9000   407.8000   404.7000   401.6000   403.9000   402.3000   403.1000   400.0000   401.6000   399.2000   396.9000   396.1000   393.8000   393.0000   392.2000   394.5000   392.2000   393.0000   393.0000   393.0000   393.0000   390.6000   389.8000   386.7000   386.7000   385.9000   382.0000   382.8000   380.5000   375.0000   376.6000   373.4000   374.2000   369.5000   368.8000   366.4000   364.1000   363.3000   362.5000   364.8000   365.6000   360.2000   360.2000   360.9000   353.9000   348.4000   348.4000   346.1000   343.8000   344.5000   341.4000   342.2000   338.3000   336.7000   332.0000   332.0000   332.0000   327.3000   323.4000   322.7000   320.3000   313.3000   308.6000   303.1000   300.8000   297.7000   293.0000   286.7000   284.4000   284.4000   284.4000   284.4000   281.3000   278.1000   276.6000   274.2000   271.9000   271.1000   268.0000   264.8000   262.5000   257.0000   250.0000   251.6000   249.2000   245.3000   246.9000   243.0000   239.8000   238.3000   241.4000   238.3000   224.2000   222.7000   219.5000   218.8000   217.2000   210.9000   207.0000   198.4000   192.2000   197.7000   192.2000   192.2000   187.5000   185.2000   182.8000   180.5000   179.7000   172.7000   163.3000   157.0000   156.3000   154.7000   150.8000   149.2000   150.0000   141.4000   135.2000   130.5000   126.6000   124.2000   121.9000   117.2000   113.3000   107.8000   103.9000   100.0000    93.0000    96.1000    92.2000    81.3000    81.3000    78.1000    72.7000    68.0000    71.9000    61.7000    55.5000    48.4000    45.3000    39.8000    41.4000    35.2000    31.3000    24.2000    14.8000     4.7000     1.6000     3.9000    -2.3000    -6.3000   -10.2000   -14.8000   -20.3000   -26.6000   -32.8000   -42.2000   -46.1000   -49.2000   -53.9000   -60.9000   -64.8000   -70.3000   -76.6000   -82.0000   -84.4000   -93.8000   -96.1000   -97.7000  -104.7000  -111.7000  -111.7000  -119.5000  -127.3000  -128.9000  -136.7000  -142.2000  -141.4000  -145.3000  -150.8000  -153.1000  -161.7000  -170.3000  -176.6000  -181.3000  -184.4000  -183.6000  -186.7000  -191.4000  -195.3000  -199.2000  -205.5000  -207.0000  -214.8000  -220.3000  -221.1000  -226.6000  -232.8000  -232.8000  -235.2000  -241.4000  -246.1000  -252.3000  -260.9000  -260.2000  -265.6000  -273.4000  -273.4000  -274.2000  -278.9000  -289.1000  -289.8000  -291.4000  -296.9000  -303.1000  -303.1000  -307.8000  -308.6000  -316.4000  -320.3000  -323.4000  -327.3000  -328.9000  -332.8000  -331.3000  -335.9000  -340.6000  -346.9000  -348.4000  -357.0000  -361.7000  -361.7000  -364.1000  -366.4000  -368.0000  -377.3000  -378.9000  -382.0000  -384.4000  -388.3000  -388.3000  -389.8000  -396.9000  -396.9000  -400.0000  -407.8000  -413.3000  -412.5000  -418.0000  -423.4000  -422.7000  -421.9000  -422.7000  -425.0000  -431.3000  -436.7000  -440.6000  -443.0000  -443.0000  -444.5000  -447.7000  -451.6000  -455.5000  -456.3000  -461.7000  -462.5000  -468.8000  -473.4000  -479.7000  -478.1000  -477.3000  -481.3000  -487.5000  -487.5000  -489.1000  -493.0000  -490.6000  -493.8000  -498.4000  -501.6000  -504.7000  -506.3000  -511.7000  -517.2000  -518.8000  -518.0000  -515.6000  -523.4000  -526.6000  -529.7000  -536.7000  -539.8000  -536.7000  -539.8000  -540.6000  -540.6000  -543.0000  -548.4000  -550.0000  -552.3000  -553.9000  -553.9000  -556.3000  -554.7000  -554.7000  -559.4000  -560.2000  -557.0000  -562.5000  -566.4000  -565.6000  -568.0000  -572.7000  -569.5000  -569.5000  -570.3000  -570.3000  -576.6000  -578.1000  -578.1000  -576.6000  -577.3000  -575.8000  -572.7000  -572.7000  -571.9000  -570.3000  -571.1000  -575.8000  -572.7000  -571.9000  -571.9000  -568.0000  -568.0000  -568.0000  -567.2000  -567.2000  -570.3000  -568.0000  -564.1000  -565.6000  -563.3000  -560.2000  -559.4000  -560.2000  -558.6000  -561.7000  -559.4000  -559.4000  -555.5000  -553.9000  -551.6000  -548.4000  -543.8000  -546.1000  -546.1000  -542.2000  -538.3000  -538.3000  -532.8000  -531.3000  -531.3000  -532.0000  -528.1000  -527.3000  -526.6000  -524.2000  -525.0000  -522.7000  -521.1000  -518.8000  -514.8000  -514.1000  -510.2000  -510.9000  -509.4000  -503.9000  -499.2000  -495.3000  -490.6000  -485.9000  -484.4000  -484.4000  -485.9000  -485.9000  -480.5000  -477.3000  -475.0000  -470.3000  -467.2000  -463.3000  -459.4000  -461.7000  -457.8000  -460.2000  -453.9000  -453.1000  -449.2000  -446.1000  -445.3000  -443.8000  -438.3000  -436.7000  -432.0000  -430.5000  -427.3000  -425.0000  -418.0000  -414.8000  -414.8000  -413.3000  -410.2000  -403.1000  -398.4000  -396.9000  -394.5000  -390.6000  -385.2000  -382.0000  -378.9000  -377.3000  -372.7000  -371.1000  -365.6000  -354.7000  -352.3000  -343.0000  -343.0000  -337.5000  -338.3000  -335.9000  -328.9000  -320.3000  -313.3000  -306.3000  -300.0000  -296.1000  -293.8000  -289.8000  -277.3000  -276.6000  -271.1000  -264.8000  -260.2000  -260.2000  -250.8000  -243.0000  -242.2000  -236.7000  -230.5000  -223.4000  -221.1000  -212.5000  -213.3000  -207.8000  -204.7000  -201.6000  -195.3000  -185.9000  -187.5000  -180.5000  -171.1000  -166.4000  -165.6000  -161.7000  -153.9000  -152.3000  -153.1000  -146.1000  -138.3000  -134.4000  -129.7000  -121.9000  -119.5000  -121.1000  -112.5000  -112.5000  -107.0000  -101.6000   -98.4000   -99.2000   -93.8000   -92.2000   -92.2000   -87.5000   -81.3000   -78.1000   -69.5000   -61.7000   -67.2000   -66.4000   -66.4000   -68.8000   -66.4000   -68.0000   -71.1000   -75.8000   -85.9000   -99.2000  -110.2000  -118.8000  -126.6000  -125.0000  -116.4000  -107.8000  -101.6000   -91.4000   -86.7000   -82.0000   -78.9000   -78.9000   -77.3000   -75.0000   -72.7000   -71.1000   -68.0000   -68.0000   -68.0000   -65.6000   -64.1000   -64.8000   -60.9000   -60.9000   -58.6000   -56.3000   -57.0000   -57.8000   -57.8000   -65.6000   -71.9000   -72.7000   -73.4000   -78.9000   -83.6000   -85.2000   -85.2000   -91.4000   -96.1000   -93.0000   -96.9000   -95.3000   -91.4000   -90.6000   -85.2000   -78.9000   -70.3000   -64.8000   -60.9000   -52.3000   -44.5000   -32.8000   -22.7000   -21.9000    -9.4000     3.1000     9.4000    14.8000    25.0000    38.3000    45.3000    56.3000    60.2000    67.2000    75.0000    85.2000    93.0000   108.6000   119.5000   132.8000   143.8000   157.8000   168.0000   178.1000   193.8000   198.4000   206.3000   215.6000   226.6000   229.7000   239.1000   254.7000   262.5000   265.6000   271.9000   279.7000   286.7000   296.9000   303.1000   316.4000   322.7000   330.5000   338.3000   345.3000   350.0000   356.3000   364.8000   370.3000   370.3000   374.2000   375.8000   379.7000   376.6000   374.2000   383.6000   390.6000   393.8000   402.3000   412.5000   414.8000   421.9000   428.1000   431.3000   439.8000   445.3000   450.0000   460.2000   468.0000   474.2000   481.3000   483.6000   483.6000   483.6000   489.8000   496.1000   503.1000   504.7000   507.8000   510.2000   512.5000   507.8000   513.3000   513.3000   515.6000   519.5000   521.9000   521.1000   521.1000   525.0000   522.7000   520.3000   521.9000   523.4000   521.9000   521.9000   521.9000   521.9000   520.3000   519.5000   515.6000   517.2000   514.8000   510.9000   510.9000   509.4000   507.8000   503.9000   504.7000   503.9000   496.1000   496.9000   496.9000   493.8000   496.1000   492.2000   487.5000   485.2000   479.7000   478.1000   474.2000   474.2000   466.4000   463.3000   467.2000   469.5000   464.1000   455.5000   453.1000   453.1000   444.5000   444.5000   446.1000   442.2000   439.8000   432.8000   425.8000   425.0000   423.4000   415.6000   412.5000   413.3000   408.6000   408.6000   409.4000   404.7000   402.3000   402.3000   398.4000   391.4000   392.2000   392.2000   389.1000   385.2000   383.6000   382.0000   376.6000   374.2000   368.8000   369.5000   368.8000   363.3000   360.2000   358.6000   354.7000   356.3000   353.9000   353.1000   347.7000   346.1000   343.8000   343.8000   337.5000   332.0000   327.3000   326.6000   323.4000   325.8000   326.6000   327.3000   323.4000   321.1000   319.5000   311.7000   309.4000   307.8000   304.7000   300.8000   295.3000   294.5000   293.0000   289.8000   282.0000   282.0000   280.5000   275.8000   278.9000   275.8000   271.9000   271.9000   268.0000   262.5000   253.9000   250.0000   247.7000   239.8000   236.7000   233.6000   232.8000   229.7000   225.8000   221.9000   214.8000   212.5000   209.4000   207.8000   202.3000   200.0000   195.3000   190.6000   185.2000   177.3000   173.4000   168.0000   168.0000   162.5000   157.0000   153.9000   153.1000   148.4000   140.6000   132.0000   129.7000   126.6000   125.0000   119.5000   116.4000   107.0000    96.1000    90.6000    90.6000    85.9000    83.6000    82.0000    75.0000    68.0000    62.5000    56.3000    53.9000    43.8000    41.4000    42.2000    33.6000    25.8000    21.1000    15.6000     9.4000     4.7000    -1.6000    -7.0000   -14.1000   -16.4000   -24.2000   -31.3000   -35.9000   -49.2000   -63.3000   -71.9000   -79.7000   -85.9000   -91.4000   -99.2000  -112.5000  -121.9000  -129.7000  -144.5000  -153.1000  -158.6000  -165.6000  -175.8000  -181.3000  -189.1000  -197.7000  -207.8000  -214.8000  -219.5000  -221.9000  -228.9000  -235.2000  -236.7000  -238.3000  -244.5000  -251.6000  -257.0000  -261.7000  -262.5000  -264.8000  -272.7000  -278.1000  -281.3000  -287.5000  -289.1000  -296.9000  -306.3000  -309.4000  -313.3000  -318.0000  -320.3000  -326.6000  -327.3000  -334.4000  -343.0000  -346.9000  -342.2000  -346.9000  -349.2000  -343.8000  -343.0000  -346.9000  -346.1000  -347.7000  -353.9000  -357.0000  -357.8000  -357.0000  -359.4000  -360.9000  -357.0000  -357.0000  -357.8000  -363.3000  -364.8000  -364.8000  -365.6000  -368.0000  -366.4000  -364.8000  -367.2000  -371.1000  -364.8000  -368.0000  -373.4000  -379.7000  -378.9000  -376.6000  -376.6000  -382.8000  -383.6000  -387.5000  -391.4000  -393.8000  -394.5000  -393.8000  -397.7000  -401.6000  -400.8000  -402.3000  -412.5000  -418.8000  -425.0000  -429.7000  -438.3000  -438.3000  -443.0000  -449.2000  -452.3000  -451.6000  -456.3000  -453.9000  -456.3000  -451.6000  -448.4000  -449.2000  -450.0000  -448.4000  -455.5000  -454.7000  -454.7000  -452.3000  -448.4000  -447.7000  -450.0000  -451.6000  -453.1000  -459.4000  -460.9000  -461.7000  -467.2000  -466.4000  -464.8000  -468.0000  -471.1000  -471.9000  -470.3000  -475.8000  -480.5000  -483.6000  -487.5000  -485.9000  -489.1000  -491.4000  -491.4000  -493.8000  -501.6000  -497.7000  -499.2000  -500.0000  -499.2000  -503.1000  -505.5000  -505.5000  -507.8000  -514.8000  -515.6000  -515.6000  -513.3000  -514.8000  -515.6000  -518.8000  -521.1000  -522.7000  -527.3000  -528.1000  -527.3000  -526.6000  -524.2000  -522.7000  -525.0000  -527.3000  -527.3000  -526.6000  -528.9000  -528.9000  -531.3000  -529.7000  -527.3000  -525.8000  -525.8000  -525.8000  -525.8000  -525.0000  -523.4000  -521.9000  -518.8000  -517.2000  -516.4000  -516.4000  -518.0000  -520.3000  -522.7000  -519.5000  -517.2000  -517.2000  -516.4000  -518.8000  -519.5000  -517.2000  -522.7000  -521.9000  -521.9000  -525.8000  -525.0000  -525.0000  -527.3000  -527.3000  -526.6000  -531.3000  -535.2000  -538.3000  -546.9000  -550.0000  -553.1000  -556.3000  -555.5000  -562.5000  -565.6000  -568.8000  -567.2000  -569.5000  -575.8000  -575.8000  -574.2000  -575.0000  -577.3000  -583.6000  -589.8000  -588.3000  -591.4000  -591.4000  -593.0000  -592.2000  -590.6000  -590.6000  -587.5000  -585.2000  -575.0000  -571.1000  -562.5000  -560.2000  -552.3000  -546.1000  -544.5000  -537.5000  -540.6000  -538.3000  -534.4000  -530.5000  -527.3000  -521.9000  -516.4000  -510.2000  -503.1000  -500.0000  -503.1000  -498.4000  -493.8000  -485.9000  -482.8000  -484.4000  -482.0000  -478.1000  -472.7000  -470.3000  -471.1000  -468.8000  -461.7000  -455.5000  -453.9000  -451.6000  -450.0000  -447.7000  -443.8000  -441.4000  -437.5000  -431.3000  -428.9000  -427.3000  -421.9000  -416.4000  -417.2000  -412.5000  -408.6000  -403.1000  -398.4000  -391.4000  -392.2000  -389.1000  -382.0000  -376.6000  -373.4000  -368.0000  -366.4000  -361.7000  -353.9000  -347.7000  -350.8000  -344.5000  -334.4000  -330.5000  -331.3000  -327.3000  -321.9000  -315.6000  -312.5000  -307.0000  -301.6000  -297.7000  -293.0000  -295.3000  -287.5000  -282.0000  -278.1000  -275.0000  -268.0000  -260.9000  -260.9000  -258.6000  -251.6000  -246.9000  -242.2000  -232.8000  -228.1000  -226.6000  -218.8000  -213.3000  -210.9000  -203.9000  -199.2000  -194.5000  -187.5000  -182.8000  -176.6000  -168.0000  -164.1000  -157.8000  -153.9000  -146.9000  -139.8000  -139.1000  -132.8000  -122.7000  -118.8000  -114.8000  -110.9000   -99.2000   -95.3000   -89.8000   -84.4000   -77.3000   -70.3000   -68.8000   -64.1000   -58.6000   -53.9000   -46.1000   -39.8000   -31.3000   -24.2000   -21.1000   -13.3000   -10.2000   -10.2000    -6.3000     2.3000     5.5000    10.9000    15.6000    18.8000    25.8000    26.6000    28.9000    30.5000    34.4000    35.9000    41.4000    48.4000    53.9000    59.4000    65.6000    66.4000    68.8000    71.1000    76.6000    78.1000    78.1000    84.4000    92.2000    95.3000    96.9000   100.8000   106.3000   114.8000   114.1000   125.0000   130.5000   134.4000   139.8000   136.7000   139.1000   146.1000   149.2000   152.3000   158.6000   157.8000   160.2000   163.3000   169.5000   173.4000   177.3000   181.3000   180.5000   185.2000   190.6000   193.0000   196.1000   196.1000   195.3000   197.7000   203.1000   206.3000   207.8000   213.3000   212.5000   213.3000   216.4000   222.7000   227.3000   224.2000   228.9000   232.0000   231.3000   230.5000   232.0000   233.6000   232.0000   234.4000   243.0000   246.1000   245.3000   249.2000   250.8000   254.7000   251.6000   253.9000   259.4000   264.1000   268.0000   267.2000   268.8000   275.0000   279.7000   282.0000   292.2000   290.6000   293.8000   297.7000   301.6000   306.3000   309.4000   311.7000   315.6000   317.2000   318.0000   321.1000   326.6000   328.1000   330.5000   336.7000   343.8000   346.1000   346.9000   351.6000   355.5000   356.3000   364.1000   370.3000   375.8000   378.9000   380.5000   381.3000   382.0000   385.2000   389.8000   394.5000   400.8000   405.5000   413.3000   416.4000   418.8000   423.4000   424.2000   428.9000   432.0000   430.5000   435.9000   441.4000   438.3000   440.6000   447.7000   448.4000   448.4000   451.6000   454.7000   454.7000   457.8000   459.4000   461.7000   465.6000   464.1000   464.1000   460.9000   462.5000   461.7000   468.0000   467.2000   463.3000   464.1000   468.0000   465.6000   462.5000   464.8000   464.1000   466.4000   468.0000   464.1000   461.7000   457.8000   457.0000   455.5000   451.6000   447.7000   444.5000   442.2000   437.5000   429.7000   421.9000   418.0000   413.3000   410.9000   408.6000   408.6000   407.8000   402.3000   394.5000   393.8000   393.0000   386.7000   381.3000   380.5000   377.3000   375.0000   368.0000   361.7000   350.8000   336.7000   315.6000   297.7000   284.4000   270.3000   257.8000   237.5000   213.3000   189.8000   159.4000   129.7000   104.7000    89.1000    68.0000    46.9000    26.6000     7.8000    -4.7000   -18.0000   -32.8000   -47.7000   -60.9000   -72.7000   -89.1000  -103.1000  -122.7000  -136.7000  -152.3000  -162.5000  -173.4000  -183.6000  -189.8000  -193.0000  -193.8000  -191.4000  -194.5000  -193.8000  -190.6000  -186.7000  -180.5000  -173.4000  -168.8000  -160.2000  -146.9000  -136.7000  -130.5000  -119.5000  -115.6000  -110.2000   -93.0000   -80.5000   -69.5000   -59.4000   -49.2000   -44.5000   -37.5000   -26.6000   -18.8000   -13.3000    -3.1000     8.6000    14.8000    24.2000    32.8000    42.2000    47.7000    54.7000    57.0000    57.8000    68.0000    73.4000    78.1000    82.8000    88.3000    82.0000    78.1000    73.4000    70.3000    75.8000    95.3000   109.4000   109.4000   107.8000    99.2000    79.7000    68.8000    64.1000    54.7000    50.0000    39.8000    32.8000    24.2000    18.8000    10.9000    -3.9000   -16.4000   -24.2000   -29.7000   -38.3000   -43.8000   -51.6000   -55.5000   -66.4000   -77.3000   -92.2000  -103.1000  -120.3000  -134.4000  -156.3000  -172.7000  -196.1000  -207.0000  -208.6000  -204.7000  -199.2000  -193.0000  -182.0000  -177.3000  -171.9000  -169.5000  -171.9000  -168.8000  -164.8000  -161.7000  -158.6000  -153.1000  -153.9000  -155.5000  -154.7000  -153.9000  -157.8000  -158.6000  -157.0000  -156.3000  -153.9000  -154.7000  -154.7000  -158.6000  -159.4000  -155.5000  -157.8000  -165.6000  -167.2000  -163.3000  -165.6000  -164.8000  -164.8000  -171.1000  -175.8000  -177.3000  -179.7000  -180.5000  -182.8000  -189.8000  -196.9000  -203.1000  -210.9000  -215.6000  -219.5000  -224.2000  -230.5000  -234.4000  -238.3000  -241.4000  -250.8000  -257.0000  -257.8000  -260.9000  -267.2000  -268.0000  -270.3000  -275.0000  -275.0000  -277.3000  -282.0000  -285.2000  -286.7000  -288.3000  -290.6000  -289.8000  -293.0000  -293.0000  -293.8000  -303.1000  -309.4000  -308.6000  -310.2000  -312.5000  -313.3000  -316.4000  -320.3000  -327.3000  -334.4000  -339.1000  -341.4000  -343.8000  -348.4000  -346.1000  -353.1000  -353.9000  -362.5000  -367.2000  -367.2000  -372.7000  -377.3000  -373.4000  -378.1000  -385.9000  -384.4000  -387.5000  -394.5000  -399.2000  -401.6000  -405.5000  -408.6000  -406.3000  -405.5000  -414.1000  -418.8000  -425.0000  -430.5000  -432.0000  -432.0000  -435.9000  -436.7000  -435.2000  -439.1000  -443.8000  -448.4000  -454.7000  -459.4000  -463.3000  -463.3000  -468.0000  -474.2000  -475.8000  -477.3000  -481.3000  -490.6000  -492.2000  -490.6000  -493.0000  -493.8000  -490.6000  -492.2000  -497.7000  -506.3000  -506.3000  -509.4000  -510.9000  -516.4000  -514.1000  -514.1000  -515.6000  -518.0000  -518.8000  -519.5000  -521.1000  -521.1000  -523.4000  -525.8000  -522.7000  -522.7000  -525.0000  -526.6000  -526.6000  -527.3000  -530.5000  -532.8000  -539.8000  -538.3000  -538.3000  -536.7000  -535.9000  -536.7000  -543.0000  -542.2000  -543.0000  -540.6000  -541.4000  -542.2000  -542.2000  -543.0000  -543.8000  -543.8000  -547.7000  -544.5000  -542.2000  -545.3000  -544.5000  -541.4000  -546.9000  -546.9000  -543.8000  -546.1000  -553.1000  -554.7000  -553.1000  -549.2000  -551.6000  -548.4000  -544.5000  -550.8000  -550.8000  -551.6000  -547.7000  -549.2000  -546.1000  -543.8000  -543.8000  -541.4000  -543.8000  -546.1000  -546.1000  -541.4000  -543.8000  -538.3000  -538.3000  -535.2000  -532.8000  -530.5000  -531.3000  -528.9000  -525.0000  -522.7000  -521.1000  -518.0000  -512.5000  -506.3000  -503.1000  -500.8000  -498.4000  -494.5000  -489.1000  -486.7000  -480.5000  -478.1000  -475.0000  -471.1000  -467.2000  -463.3000  -458.6000  -454.7000  -448.4000  -441.4000  -440.6000  -440.6000  -439.8000  -438.3000  -435.2000  -432.8000  -430.5000  -426.6000  -421.1000  -415.6000  -412.5000  -410.2000  -407.8000  -406.3000  -403.9000  -397.7000  -396.1000  -390.6000  -384.4000  -381.3000  -382.8000  -381.3000  -375.8000  -372.7000  -370.3000  -368.0000  -359.4000  -359.4000  -354.7000  -353.1000  -346.1000  -341.4000  -339.1000  -339.8000  -334.4000  -328.9000  -325.0000  -321.9000  -318.8000  -320.3000  -317.2000  -309.4000  -305.5000  -301.6000  -295.3000  -296.1000  -294.5000  -295.3000  -289.8000  -292.2000  -282.0000  -278.9000  -275.8000  -270.3000  -269.5000  -263.3000  -260.9000  -257.8000  -257.8000  -257.0000  -250.8000  -243.0000  -240.6000  -237.5000  -230.5000  -229.7000  -228.9000  -225.0000  -216.4000  -214.8000  -211.7000  -208.6000  -204.7000  -196.1000  -191.4000  -185.2000  -187.5000  -182.8000  -175.8000  -171.9000  -165.6000  -158.6000  -153.9000  -148.4000  -143.8000  -145.3000  -137.5000  -133.6000  -128.1000  -121.9000  -116.4000  -111.7000  -107.0000  -103.1000  -101.6000   -96.9000   -86.7000   -81.3000   -75.8000   -72.7000   -67.2000   -63.3000   -63.3000   -56.3000   -54.7000   -51.6000   -45.3000   -39.1000   -32.0000   -27.3000   -21.1000   -20.3000   -19.5000   -14.1000   -11.7000    -8.6000    -3.1000     5.5000     6.3000     9.4000    14.8000    14.8000    21.1000    25.0000    28.9000    33.6000    37.5000    43.8000    46.9000    50.8000    50.0000    54.7000    58.6000    63.3000    70.3000    75.8000    79.7000    89.8000    87.5000    88.3000    92.2000   100.0000   103.1000   104.7000   114.1000   118.0000   122.7000   125.8000   131.3000   129.7000   136.7000   139.8000   141.4000   145.3000   147.7000   152.3000   155.5000   154.7000   152.3000   159.4000   168.0000   167.2000   173.4000   184.4000   189.8000   188.3000   195.3000   199.2000   205.5000   208.6000   216.4000   220.3000   228.1000   229.7000   232.8000   236.7000   240.6000   244.5000   247.7000   249.2000   255.5000   256.3000   260.2000   260.9000   265.6000   263.3000   264.1000   266.4000   264.8000   266.4000   274.2000   275.0000   274.2000   278.1000   279.7000   273.4000   276.6000   278.9000   281.3000   289.8000   296.9000   297.7000   302.3000   303.9000   302.3000   306.3000   308.6000   308.6000   312.5000   321.9000   324.2000   325.0000   330.5000   332.8000   335.9000   339.8000   342.2000   346.1000   351.6000   353.1000   355.5000   360.2000   362.5000   363.3000   366.4000   368.0000   372.7000   373.4000   380.5000   379.7000   382.0000   381.3000   384.4000   383.6000   384.4000   386.7000   387.5000   390.6000   389.8000   393.0000   391.4000   388.3000   385.2000   389.8000   396.1000   393.0000   394.5000   400.8000   399.2000   399.2000   400.0000   395.3000   397.7000   396.9000   395.3000   396.1000   397.7000   397.7000   397.7000   394.5000   389.1000   389.1000   394.5000   390.6000   392.2000   389.8000   389.1000   384.4000   382.0000   379.7000   375.0000   378.1000   378.1000   371.9000   370.3000   374.2000   371.1000   367.2000   363.3000   365.6000   362.5000   360.2000   357.8000   352.3000   352.3000   353.1000   352.3000   343.0000   342.2000   339.8000   336.7000   336.7000   338.3000   335.2000   332.0000   332.0000   328.1000   324.2000   320.3000   320.3000   316.4000   318.8000   319.5000   316.4000   314.8000   311.7000   308.6000   303.9000   300.8000   300.8000   296.9000   296.9000   296.1000   294.5000   294.5000   287.5000   285.2000   285.2000   283.6000   279.7000   280.5000   278.9000   279.7000   277.3000   272.7000   269.5000   261.7000   258.6000   258.6000   260.9000   260.2000   259.4000   257.0000   253.1000   242.2000   240.6000   237.5000   228.9000   226.6000   223.4000   221.9000   218.0000   214.1000   214.8000   210.2000   205.5000   200.0000   195.3000   195.3000   193.0000   188.3000   184.4000   178.1000   174.2000   176.6000   183.6000   181.3000   182.8000   180.5000   175.8000   173.4000   168.8000   165.6000   160.9000   160.9000   157.0000   154.7000   151.6000   152.3000   144.5000   136.7000   134.4000   139.1000   135.2000   138.3000   135.2000   132.8000   129.7000   124.2000   116.4000   113.3000   113.3000   110.2000   107.0000   103.1000   105.5000   101.6000   101.6000    96.1000    89.1000    84.4000    85.2000    78.9000    78.1000    74.2000    69.5000    63.3000    63.3000    54.7000    48.4000    45.3000    43.8000    36.7000    34.4000    33.6000    27.3000    24.2000    21.1000    18.0000     9.4000     2.3000     0.8000    -3.9000    -9.4000   -14.8000   -21.1000   -26.6000   -30.5000   -37.5000   -43.0000   -46.9000   -46.9000   -57.0000   -64.8000   -65.6000   -75.8000   -85.9000   -90.6000   -94.5000   -96.9000  -100.0000  -104.7000  -106.3000  -112.5000  -116.4000  -124.2000  -128.1000  -134.4000  -141.4000  -144.5000  -148.4000  -153.1000  -155.5000  -158.6000  -162.5000  -172.7000  -181.3000  -186.7000  -188.3000  -194.5000  -199.2000  -199.2000  -203.1000  -210.9000  -218.8000  -221.9000  -226.6000  -229.7000  -232.0000  -235.9000  -236.7000  -243.8000  -252.3000  -254.7000  -257.8000  -265.6000  -265.6000  -268.0000  -273.4000  -275.0000  -278.1000  -287.5000  -291.4000  -293.8000  -295.3000  -295.3000  -301.6000  -305.5000  -309.4000  -316.4000  -321.1000  -326.6000  -327.3000  -327.3000  -326.6000  -328.9000  -331.3000  -335.9000  -343.0000  -346.9000  -346.1000  -352.3000  -359.4000  -357.0000  -355.5000  -359.4000  -360.2000  -364.1000  -365.6000  -372.7000  -376.6000  -376.6000  -382.8000  -384.4000  -385.2000  -388.3000  -391.4000  -394.5000  -401.6000  -400.0000  -402.3000  -404.7000  -410.9000  -410.2000  -416.4000  -417.2000  -416.4000  -421.1000  -422.7000  -425.8000  -430.5000  -432.8000  -432.8000  -433.6000  -435.2000  -439.8000  -448.4000  -456.3000  -460.2000  -464.1000  -466.4000  -469.5000  -466.4000  -468.8000  -473.4000  -480.5000  -482.8000  -487.5000  -492.2000  -497.7000  -500.0000  -503.1000  -507.0000  -510.9000  -515.6000  -518.8000  -525.0000  -524.2000  -522.7000  -525.8000  -529.7000  -528.9000  -534.4000  -541.4000  -541.4000  -546.9000  -549.2000  -550.8000  -551.6000  -557.0000  -558.6000  -560.2000  -563.3000  -568.0000  -567.2000  -570.3000  -577.3000  -577.3000  -585.9000  -597.7000  -618.0000  -646.9000  -689.8000  -742.2000  -777.3000  -783.6000  -760.9000  -724.2000  -686.7000  -655.5000  -629.7000  -607.8000  -584.4000  -568.8000  -557.0000  -542.2000  -528.9000  -521.1000  -511.7000  -502.3000  -496.1000  -493.8000  -488.3000  -484.4000  -475.8000  -475.8000  -474.2000  -472.7000  -471.1000  -468.0000  -467.2000  -469.5000  -470.3000  -469.5000  -469.5000  -474.2000  -473.4000  -475.8000  -478.1000  -475.0000  -475.8000  -478.1000  -476.6000  -474.2000  -478.1000  -476.6000  -475.8000  -474.2000  -474.2000  -474.2000  -481.3000  -482.8000  -480.5000  -484.4000  -480.5000  -482.0000  -484.4000  -482.8000  -479.7000  -476.6000  -474.2000  -468.8000  -468.0000  -469.5000  -468.8000  -466.4000  -468.0000  -463.3000  -463.3000  -457.8000  -453.1000  -453.1000  -450.8000  -450.8000  -449.2000  -450.0000  -442.2000  -440.6000  -440.6000  -439.8000  -436.7000  -428.9000  -426.6000  -421.9000  -420.3000  -423.4000  -422.7000  -423.4000  -421.1000  -415.6000  -413.3000  -409.4000  -404.7000  -403.9000  -401.6000  -400.0000  -407.0000  -419.5000  -443.8000  -466.4000  -485.2000  -503.9000  -521.9000  -533.6000  -545.3000  -553.1000  -550.0000  -548.4000  -539.8000  -532.8000  -525.0000  -518.8000  -510.9000  -502.3000  -492.2000  -483.6000  -475.0000  -473.4000  -468.0000  -460.9000  -465.6000  -458.6000  -455.5000  -448.4000  -437.5000  -426.6000  -419.5000  -409.4000  -400.0000  -385.2000  -375.8000  -365.6000  -355.5000  -343.0000  -331.3000  -318.8000  -304.7000  -290.6000  -275.0000  -262.5000  -249.2000  -235.2000  -224.2000  -217.2000  -206.3000  -202.3000  -193.0000  -189.1000  -184.4000  -178.1000  -172.7000  -165.6000  -164.1000  -161.7000  -157.0000  -151.6000  -150.0000  -148.4000  -145.3000  -140.6000  -132.8000  -129.7000  -131.3000  -128.9000  -123.4000  -124.2000  -122.7000  -117.2000  -114.8000  -109.4000  -103.1000  -101.6000  -100.0000   -91.4000   -88.3000   -83.6000   -79.7000   -73.4000   -68.0000   -64.1000   -57.8000   -50.8000   -50.0000   -49.2000   -45.3000   -40.6000   -38.3000   -34.4000   -30.5000   -28.1000   -25.0000   -26.6000   -25.8000   -25.0000   -23.4000   -20.3000   -15.6000   -10.2000   -11.7000    -6.3000    -0.8000     0.8000     3.9000     7.0000     6.3000     8.6000    10.2000    14.8000    19.5000    21.9000    25.0000    27.3000    32.8000    37.5000    40.6000    46.1000    45.3000    48.4000    54.7000    62.5000    64.8000    70.3000    74.2000    79.7000    86.7000    87.5000    90.6000    96.9000   102.3000   103.1000   109.4000   112.5000   114.8000   121.1000   135.9000   139.1000   145.3000   152.3000   153.9000   160.9000   168.0000   174.2000   183.6000   194.5000   200.0000   207.0000   218.0000   222.7000   223.4000   239.8000   245.3000   250.8000   255.5000   271.1000   279.7000   283.6000   289.8000   297.7000   306.3000   315.6000   322.7000   331.3000   333.6000   338.3000   342.2000   349.2000   356.3000   368.8000   385.9000   408.6000   419.5000   425.0000   442.2000   476.6000   518.0000   556.3000   593.8000   621.1000   635.9000   649.2000   660.2000   658.6000   657.8000   658.6000   661.7000   662.5000   653.9000   647.7000   644.5000   643.8000   635.2000   624.2000   617.2000   607.0000   591.4000   582.0000   571.9000   557.8000   553.1000   544.5000   539.1000   533.6000   523.4000   514.8000   510.9000   508.6000   502.3000   496.9000   484.4000   462.5000   448.4000   435.9000   415.6000   385.2000   353.9000   324.2000   303.1000   293.0000   289.1000   285.9000   280.5000   268.8000   255.5000   237.5000   212.5000   192.2000   178.9000   154.7000   130.5000   109.4000    93.8000    72.7000    47.7000    17.2000   -21.9000   -57.8000   -91.4000  -120.3000  -139.1000  -153.9000  -167.2000  -184.4000  -205.5000  -228.9000  -251.6000  -272.7000  -289.1000  -294.5000  -290.6000  -281.3000  -261.7000  -244.5000  -222.7000  -197.7000  -171.9000  -143.8000  -118.0000   -93.8000   -71.9000   -44.5000   -18.8000     7.8000    35.9000    61.7000    82.0000   107.0000   129.7000   146.1000   164.1000   192.2000   213.3000   235.2000   255.5000   267.2000   283.6000   300.8000   317.2000   329.7000   346.1000   359.4000   374.2000   391.4000   403.1000   414.1000   421.1000   428.9000   432.8000   442.2000   453.9000   460.9000   466.4000   478.9000   481.3000   483.6000   488.3000   491.4000   491.4000   491.4000   490.6000   493.0000   493.0000   498.4000   500.0000   496.9000   491.4000   492.2000   492.2000   493.0000   493.8000   491.4000   485.2000   482.0000   479.7000   475.8000   470.3000   468.8000   467.2000   461.7000   463.3000   459.4000   456.3000   454.7000   446.1000   443.0000   440.6000   436.7000   432.8000   431.3000   428.9000   423.4000   418.8000   417.2000   409.4000   404.7000   396.1000   390.6000   386.7000   382.8000   376.6000   366.4000   362.5000   359.4000   353.9000   341.4000   337.5000   338.3000   336.7000   327.3000   321.9000   315.6000   305.5000   300.0000   293.0000   285.9000   285.2000   281.3000   278.1000   272.7000   268.8000   254.7000   248.4000   242.2000   235.2000   228.9000   221.1000   220.3000   212.5000   206.3000   200.8000   193.8000   189.1000   185.9000   182.0000   180.5000   175.0000   171.9000   164.8000   159.4000   157.8000   150.0000   137.5000   128.1000   116.4000   107.8000   100.8000    89.8000    80.5000    75.8000    64.1000    50.8000    46.1000    42.2000    30.5000    26.6000    22.7000    20.3000     7.8000     2.3000    -3.9000    -7.0000   -12.5000   -22.7000   -35.9000   -44.5000   -58.6000   -74.2000   -89.1000  -103.1000  -115.6000  -132.0000  -142.2000  -157.8000  -173.4000  -182.8000  -182.8000  -192.2000  -199.2000  -205.5000  -207.8000  -217.2000  -221.9000  -227.3000  -235.9000  -244.5000  -255.5000  -267.2000  -275.8000  -281.3000  -291.4000  -291.4000  -293.0000  -302.3000  -309.4000  -312.5000  -313.3000  -315.6000  -321.1000  -320.3000  -320.3000  -325.8000  -328.1000  -330.5000  -334.4000  -332.8000  -333.6000  -333.6000  -334.4000  -335.2000  -335.2000  -336.7000  -342.2000  -345.3000  -344.5000  -341.4000  -340.6000  -339.1000  -335.2000  -331.3000  -333.6000  -335.2000  -336.7000  -337.5000  -337.5000  -338.3000  -337.5000  -338.3000  -332.8000  -332.0000  -331.3000  -328.9000  -328.9000  -331.3000  -335.2000  -332.0000  -337.5000  -345.3000  -340.6000  -343.0000  -351.6000  -349.2000  -348.4000  -350.8000  -346.9000  -342.2000  -343.8000  -347.7000  -350.8000  -351.6000  -354.7000  -356.3000  -356.3000  -362.5000  -357.8000  -362.5000  -364.1000  -364.1000  -364.8000  -372.7000  -375.0000  -368.8000  -373.4000  -375.0000  -375.0000  -376.6000  -381.3000  -382.0000  -385.2000  -390.6000  -394.5000  -399.2000  -397.7000  -399.2000  -400.8000  -402.3000  -407.8000  -410.2000  -413.3000  -417.2000  -419.5000  -417.2000  -419.5000  -424.2000  -424.2000  -430.5000  -435.9000  -435.2000  -435.2000  -435.2000  -434.4000  -438.3000  -442.2000  -443.8000  -445.3000  -447.7000  -444.5000  -451.6000  -451.6000  -450.0000  -451.6000  -451.6000  -453.9000  -457.0000  -459.4000  -460.9000  -461.7000  -462.5000  -464.8000  -466.4000  -468.0000  -463.3000  -464.8000  -468.0000  -470.3000  -472.7000  -475.8000  -475.0000  -474.2000  -475.0000  -478.1000  -478.9000  -478.1000  -478.9000  -481.3000  -485.2000  -487.5000  -485.2000  -482.8000  -484.4000  -485.2000  -488.3000  -490.6000  -489.1000  -483.6000  -483.6000  -482.0000  -484.4000  -487.5000  -489.8000  -490.6000  -489.1000  -486.7000  -489.1000  -485.2000  -480.5000  -483.6000  -482.0000  -486.7000  -486.7000  -484.4000  -482.0000  -482.0000  -478.1000  -476.6000  -479.7000  -477.3000  -475.8000  -474.2000  -474.2000  -471.1000  -470.3000  -469.5000  -461.7000  -462.5000  -461.7000  -461.7000  -460.2000  -460.9000  -461.7000  -458.6000  -456.3000  -462.5000  -457.8000  -454.7000  -457.8000  -453.1000  -452.3000  -455.5000  -457.0000  -454.7000  -457.0000  -453.1000  -445.3000  -445.3000  -449.2000  -446.1000  -443.0000  -441.4000  -439.1000  -434.4000  -435.2000  -431.3000  -428.1000  -429.7000  -431.3000  -425.0000  -424.2000  -420.3000  -412.5000  -410.9000  -411.7000  -412.5000  -413.3000  -413.3000  -407.0000  -404.7000  -401.6000  -395.3000  -393.8000  -388.3000  -385.9000  -382.0000  -381.3000  -376.6000  -373.4000  -367.2000  -364.8000  -360.9000  -359.4000  -354.7000  -351.6000  -346.9000  -345.3000  -345.3000  -341.4000  -336.7000  -330.5000  -326.6000  -321.9000  -320.3000  -317.2000  -313.3000  -309.4000  -306.3000  -304.7000  -296.1000  -299.2000  -294.5000  -289.8000  -285.9000  -285.9000  -278.9000  -274.2000  -273.4000  -267.2000  -261.7000  -259.4000  -257.8000  -253.9000  -252.3000  -248.4000  -246.1000  -239.1000  -235.9000  -231.3000  -230.5000  -228.1000  -228.1000  -225.8000  -218.0000  -221.9000  -218.0000  -210.2000  -206.3000  -203.1000  -199.2000  -196.9000  -202.3000  -196.1000  -189.8000  -190.6000  -178.9000  -173.4000  -171.1000  -168.8000  -164.8000  -162.5000  -161.7000  -158.6000  -155.5000  -151.6000  -146.9000  -141.4000  -140.6000  -135.9000  -128.9000  -128.9000  -127.3000  -119.5000  -114.1000  -110.9000  -103.9000   -96.9000   -93.8000   -89.8000   -81.3000   -77.3000   -71.1000   -61.7000   -54.7000   -50.0000   -44.5000   -40.6000   -35.2000   -29.7000   -22.7000   -19.5000   -13.3000    -3.9000    -3.1000     5.5000    12.5000    13.3000    15.6000    22.7000    30.5000    35.9000    42.2000    49.2000    53.9000    58.6000    61.7000    67.2000    73.4000    78.1000    81.3000    82.8000    88.3000    96.9000   103.9000   108.6000   111.7000   114.1000   117.2000   119.5000   128.9000   135.9000   140.6000   146.9000   150.0000   152.3000   156.3000   157.0000   162.5000   171.1000   172.7000   175.8000   181.3000   187.5000   183.6000   190.6000   191.4000   199.2000   201.6000   207.0000   207.8000   212.5000   217.2000   216.4000   218.8000   224.2000   228.1000   230.5000   237.5000   242.2000   243.8000   247.7000   250.0000   250.0000   254.7000   254.7000   263.3000   268.0000   273.4000   277.3000   286.7000   283.6000   282.8000   288.3000   294.5000   298.4000   303.9000   310.2000   314.1000   314.8000   318.0000   322.7000   325.8000   326.6000   327.3000   337.5000   340.6000   338.3000   345.3000   347.7000   345.3000   346.1000   351.6000   357.0000   360.2000   361.7000   364.8000   370.3000   376.6000   380.5000   380.5000   385.2000   389.1000   389.1000   396.1000   400.0000   400.0000   405.5000   405.5000   407.0000   410.9000   410.2000   416.4000   422.7000   422.7000   425.0000   425.8000   423.4000   426.6000   430.5000   432.0000   431.3000   436.7000   443.0000   445.3000   446.9000   447.7000   446.9000   448.4000   448.4000   448.4000   447.7000   450.8000   451.6000   453.1000   456.3000   450.8000   451.6000   453.9000   455.5000   455.5000   456.3000   457.0000   454.7000   456.3000   457.8000   453.1000   450.0000   450.8000   447.7000   443.0000   443.8000   444.5000   434.4000   434.4000   425.8000   418.0000   412.5000   409.4000   407.0000   403.1000   399.2000   393.8000   385.2000   380.5000   375.0000   366.4000   362.5000   363.3000   362.5000   357.8000   350.8000   350.0000   342.2000   336.7000   335.2000   331.3000   326.6000   327.3000   324.2000   318.8000   318.8000   316.4000   316.4000   317.2000   318.0000   321.1000   325.0000   321.9000   322.7000   322.7000   324.2000   324.2000   324.2000   327.3000   326.6000   328.9000   333.6000   336.7000   333.6000   335.2000   332.8000   333.6000   333.6000   339.1000   339.8000   337.5000   339.8000   340.6000   334.4000   331.3000   329.7000   333.6000   332.8000   335.9000   334.4000   332.0000   333.6000   332.0000   335.2000   332.0000   327.3000   326.6000   330.5000   333.6000   331.3000   330.5000   332.0000   331.3000   332.0000   328.9000   327.3000   328.1000   333.6000   331.3000   328.9000   326.6000   327.3000   321.9000   318.8000   320.3000   319.5000   318.0000   314.1000   314.8000   314.1000   310.2000   304.7000   302.3000   300.0000   297.7000   294.5000   296.9000   290.6000   292.2000   285.9000   278.9000   276.6000   276.6000   275.0000   275.0000   270.3000   269.5000   264.8000   257.8000   250.0000   250.0000   247.7000   245.3000   244.5000   245.3000   240.6000   235.9000   232.0000   228.1000   222.7000   219.5000   215.6000   211.7000   207.0000   207.8000   205.5000   199.2000   195.3000   194.5000   192.2000   190.6000   181.3000   181.3000   172.7000   173.4000   165.6000   161.7000   155.5000   150.0000   147.7000   141.4000   138.3000   133.6000   130.5000   128.9000   120.3000   115.6000   114.1000   107.0000   101.6000   100.8000   102.3000    92.2000    90.6000    87.5000    78.9000    71.9000    64.1000    58.6000    56.3000    53.1000    46.1000    39.1000    35.2000    31.3000    22.7000    13.3000     6.3000     0.8000    -3.1000    -7.8000   -13.3000   -20.3000   -25.8000   -34.4000   -39.1000   -43.8000   -48.4000   -50.0000   -53.9000   -58.6000   -65.6000   -68.0000   -75.0000   -81.3000   -85.9000   -87.5000   -89.1000   -93.0000   -99.2000   -98.4000  -105.5000  -113.3000  -120.3000  -125.0000  -126.6000  -127.3000  -135.9000  -138.3000  -139.1000  -146.1000  -152.3000  -154.7000  -160.2000  -168.8000  -173.4000  -175.8000  -175.8000  -181.3000  -185.2000  -185.9000  -193.0000  -201.6000  -205.5000  -206.3000  -207.8000  -216.4000  -220.3000  -222.7000  -226.6000  -235.9000  -240.6000  -240.6000  -246.9000  -251.6000  -248.4000  -255.5000  -262.5000  -268.8000  -273.4000  -276.6000  -286.7000  -289.8000  -291.4000  -292.2000  -293.8000  -291.4000  -296.1000  -304.7000  -310.2000  -310.2000  -312.5000  -318.8000  -321.9000  -321.9000  -325.8000  -332.0000  -334.4000  -337.5000  -338.3000  -338.3000  -339.8000  -342.2000  -348.4000  -350.0000  -353.1000  -351.6000  -352.3000  -353.9000  -354.7000  -356.3000  -363.3000  -363.3000  -361.7000  -368.0000  -371.1000  -371.9000  -378.9000  -379.7000  -386.7000  -384.4000  -384.4000  -388.3000  -393.8000  -399.2000  -400.0000  -402.3000  -403.9000  -405.5000  -407.8000  -409.4000  -410.9000  -414.1000  -421.1000  -418.8000  -424.2000  -428.9000  -425.8000  -428.9000  -432.8000  -434.4000  -437.5000  -442.2000  -451.6000  -452.3000  -453.9000  -454.7000  -451.6000  -455.5000  -458.6000  -459.4000  -464.8000  -464.1000  -462.5000  -467.2000  -469.5000  -464.1000  -464.8000  -469.5000  -464.1000  -468.8000  -468.8000  -468.8000  -473.4000  -473.4000  -476.6000  -475.8000  -475.8000  -477.3000  -475.8000  -484.4000  -485.2000  -485.2000  -484.4000  -484.4000  -484.4000  -482.0000  -482.0000  -479.7000  -479.7000  -482.8000  -480.5000  -479.7000  -475.8000  -477.3000  -477.3000  -475.0000  -473.4000  -475.0000  -473.4000  -470.3000  -468.8000  -466.4000  -466.4000  -464.8000  -457.0000  -456.3000  -458.6000  -455.5000  -454.7000  -451.6000  -443.0000  -445.3000  -447.7000  -443.8000  -440.6000  -438.3000  -437.5000  -432.8000  -432.0000  -431.3000  -429.7000  -426.6000  -422.7000  -418.8000  -417.2000  -415.6000  -418.0000  -414.1000  -410.2000  -407.8000  -403.1000  -400.0000  -392.2000  -393.8000  -389.1000  -388.3000  -385.2000  -376.6000  -370.3000  -368.0000  -365.6000  -360.2000  -360.2000  -360.9000  -357.0000  -353.9000  -348.4000  -344.5000  -339.8000  -335.2000  -332.0000  -332.0000  -331.3000  -326.6000  -325.8000  -324.2000  -325.0000  -324.2000  -319.5000  -318.8000  -319.5000  -321.9000  -321.9000  -321.1000  -318.0000  -314.1000  -309.4000  -306.3000  -305.5000  -304.7000  -302.3000  -303.1000  -300.0000  -298.4000  -295.3000  -296.1000  -293.8000  -289.8000  -289.8000  -291.4000  -285.2000  -282.0000  -284.4000  -282.0000  -287.5000  -293.8000  -302.3000  -310.9000  -322.7000  -329.7000  -335.2000  -339.8000  -338.3000  -346.9000  -350.8000  -359.4000  -364.8000  -369.5000  -378.1000  -392.2000  -400.8000  -407.0000  -412.5000  -424.2000  -439.8000  -452.3000  -465.6000  -471.1000  -483.6000  -489.1000  -492.2000  -493.8000  -493.0000  -486.7000  -481.3000  -477.3000  -470.3000  -460.9000  -453.9000  -435.9000  -421.9000  -405.5000  -393.8000  -379.7000  -368.8000  -347.7000  -324.2000  -311.7000  -295.3000  -281.3000  -267.2000  -253.9000  -240.6000  -228.9000  -217.2000  -201.6000  -184.4000  -169.5000  -152.3000  -143.8000  -125.0000  -110.9000   -98.4000   -90.6000   -75.8000   -60.2000   -47.7000   -35.9000   -26.6000   -12.5000    -3.9000     4.7000    15.6000    27.3000    34.4000    46.9000    58.6000    67.2000    77.3000    88.3000    96.1000   102.3000   106.3000   113.3000   121.9000   129.7000   133.6000   142.2000   151.6000   156.3000   160.2000   165.6000   175.8000   179.7000   185.2000   194.5000   195.3000   200.8000   207.0000   211.7000   215.6000   213.3000   217.2000   225.0000   230.5000   231.3000   232.8000   235.2000   238.3000   241.4000   253.1000   256.3000   261.7000   266.4000   268.0000   272.7000   278.1000   276.6000   280.5000   282.8000   284.4000   286.7000   294.5000   296.1000   294.5000   300.0000   304.7000   305.5000   311.7000   309.4000   315.6000   322.7000   322.7000   325.0000   329.7000   331.3000   332.8000   335.9000   343.0000   344.5000   344.5000   350.0000   357.0000   356.3000   356.3000   357.0000   367.2000   364.8000   370.3000   375.0000   380.5000   380.5000   382.0000   386.7000   387.5000   387.5000   389.1000   396.1000   397.7000   401.6000   403.1000   406.3000   413.3000   410.9000   408.6000   413.3000   416.4000   417.2000   421.9000   425.0000   427.3000   429.7000   428.1000   430.5000   435.2000   440.6000   443.8000   448.4000   446.1000   450.0000   453.1000   458.6000   458.6000   457.0000   464.1000   466.4000   468.0000   468.8000   472.7000   475.8000   475.8000   471.9000   476.6000   477.3000   479.7000   489.1000   493.8000   496.9000   498.4000   498.4000   496.9000   496.9000   498.4000   503.1000   507.8000   507.8000   507.0000   513.3000   515.6000   514.8000   510.9000   508.6000   509.4000   508.6000   513.3000   513.3000   511.7000   511.7000   514.1000   511.7000   514.8000   510.9000   509.4000   513.3000   513.3000   513.3000   514.1000   514.8000   513.3000   510.2000   512.5000   509.4000   514.1000   516.4000   514.1000   508.6000   503.9000   503.1000   502.3000   501.6000   502.3000   500.8000   503.9000   500.0000   497.7000   498.4000   493.8000   486.7000   486.7000   484.4000   482.8000   482.0000   482.0000   479.7000   478.9000   473.4000   469.5000   470.3000   467.2000   465.6000   468.0000   466.4000   462.5000   459.4000   457.0000   451.6000   446.9000   442.2000   437.5000   437.5000   442.2000   437.5000   434.4000   430.5000   427.3000   421.9000   421.1000   421.9000   423.4000   422.7000   422.7000   421.1000   418.8000   417.2000   415.6000   408.6000   403.9000   404.7000   404.7000   400.0000   397.7000   396.9000   392.2000   384.4000   389.1000   386.7000   385.9000   381.3000   377.3000   372.7000   369.5000   368.8000   363.3000   363.3000   362.5000   363.3000   359.4000   357.8000   357.8000   354.7000   350.8000   343.8000   342.2000   339.1000   340.6000   335.9000   335.2000   330.5000   327.3000   327.3000   318.0000   316.4000   311.7000   309.4000   310.9000   310.9000   305.5000   303.9000   300.8000   293.0000   291.4000   282.8000   282.0000   279.7000   274.2000   271.9000   269.5000   268.8000   260.2000   251.6000   250.0000   247.7000   246.9000   245.3000   245.3000   239.1000   232.0000   228.9000   220.3000   221.1000   218.8000   210.2000   204.7000   202.3000   196.9000   194.5000   189.8000   182.8000   177.3000   172.7000   168.8000   171.1000   169.5000   165.6000   157.8000   153.9000   143.0000   140.6000   139.1000   135.9000   127.3000   125.8000   120.3000   121.1000   107.8000   105.5000   100.0000    96.1000    89.1000    88.3000    85.9000    82.0000    77.3000    71.1000    68.0000    60.9000    60.9000    56.3000    50.8000    51.6000    46.1000    44.5000    36.7000    36.7000    33.6000    25.0000    22.7000    17.2000    15.6000    13.3000     8.6000     5.5000     1.6000    -6.3000   -16.4000   -19.5000   -19.5000   -25.8000   -24.2000   -29.7000   -35.9000   -37.5000   -44.5000   -54.7000   -54.7000   -59.4000   -65.6000   -65.6000   -71.1000   -76.6000   -78.9000   -85.2000   -91.4000   -96.1000  -103.9000  -108.6000  -110.9000  -113.3000  -118.8000  -121.1000  -122.7000  -126.6000  -137.5000  -139.8000  -146.9000  -153.1000  -157.0000  -162.5000  -171.1000  -180.5000  -189.1000  -193.0000  -197.7000  -204.7000  -207.0000  -214.1000  -224.2000  -239.8000  -249.2000  -264.1000  -280.5000  -295.3000  -307.8000  -321.1000  -340.6000  -354.7000  -362.5000  -367.2000  -374.2000  -377.3000  -374.2000  -372.7000  -372.7000  -375.0000  -378.1000  -385.9000  -396.1000  -407.0000  -407.0000  -413.3000  -421.1000  -424.2000  -423.4000  -429.7000  -439.1000  -443.8000  -442.2000  -450.8000  -458.6000  -465.6000  -473.4000  -478.1000  -492.2000  -507.0000  -521.1000  -535.2000  -553.1000  -561.7000  -569.5000  -575.8000  -580.5000  -585.9000  -590.6000  -596.9000  -601.6000  -601.6000  -610.2000  -618.0000  -617.2000  -616.4000  -617.2000  -616.4000  -614.8000  -609.4000  -611.7000  -611.7000  -614.1000  -607.0000  -597.7000  -596.9000  -593.8000  -593.0000  -593.0000  -593.8000  -585.9000  -579.7000  -571.9000  -567.2000  -562.5000  -557.0000  -553.9000  -550.8000  -550.8000  -548.4000  -542.2000  -534.4000  -531.3000  -525.8000  -523.4000  -522.7000  -519.5000  -520.3000  -518.0000  -513.3000  -504.7000  -503.9000  -500.8000  -495.3000  -493.0000  -486.7000  -482.8000  -481.3000  -478.9000  -478.1000  -476.6000  -471.9000  -468.0000  -468.0000  -466.4000  -467.2000  -467.2000  -461.7000  -457.8000  -457.0000  -453.9000  -454.7000  -453.1000  -450.0000  -453.9000  -451.6000  -447.7000  -446.1000  -448.4000  -446.1000  -443.0000  -440.6000  -443.0000  -448.4000  -446.1000  -442.2000  -442.2000  -440.6000  -439.1000  -437.5000  -435.9000  -434.4000  -435.2000  -432.0000  -433.6000  -434.4000  -430.5000  -431.3000  -433.6000  -434.4000  -428.1000  -431.3000  -431.3000  -426.6000  -422.7000  -424.2000  -421.1000  -417.2000  -419.5000  -414.8000  -412.5000  -412.5000  -411.7000  -407.8000  -405.5000  -407.0000  -405.5000  -406.3000  -404.7000  -403.1000  -400.0000  -401.6000  -400.0000  -395.3000  -389.1000  -389.8000  -391.4000  -386.7000  -383.6000  -391.4000  -384.4000  -380.5000  -378.9000  -379.7000  -377.3000  -375.8000  -377.3000  -374.2000  -369.5000  -369.5000  -371.1000  -368.8000  -370.3000  -363.3000  -357.0000  -355.5000  -353.1000  -358.6000  -355.5000  -354.7000  -353.9000  -352.3000  -350.8000  -348.4000  -344.5000  -343.8000  -344.5000  -344.5000  -339.1000  -338.3000  -333.6000  -328.1000  -324.2000  -325.0000  -325.0000  -323.4000  -321.1000  -319.5000  -318.8000  -313.3000  -309.4000  -308.6000  -303.9000  -297.7000  -299.2000  -296.9000  -293.8000  -289.1000  -286.7000  -283.6000  -275.8000  -277.3000  -275.0000  -270.3000  -272.7000  -260.2000  -260.2000  -260.9000  -252.3000  -250.0000  -244.5000  -237.5000  -233.6000  -235.9000  -232.0000  -228.1000  -223.4000  -221.9000  -217.2000  -210.9000  -210.9000  -205.5000  -204.7000  -203.1000  -200.0000  -199.2000  -190.6000  -188.3000  -185.2000  -181.3000  -179.7000  -178.9000  -175.8000  -174.2000  -164.1000  -163.3000  -157.8000  -153.1000  -149.2000  -141.4000  -139.1000  -133.6000  -132.8000  -128.1000  -121.9000  -114.1000  -113.3000  -110.2000  -107.0000  -100.8000   -95.3000   -92.2000   -89.1000   -80.5000   -73.4000   -68.8000   -68.0000   -65.6000   -59.4000   -55.5000   -47.7000   -43.0000   -35.2000   -32.0000   -26.6000   -20.3000   -19.5000   -14.8000    -6.3000    -3.9000     0.0000     5.5000    14.8000    21.9000    25.0000    28.9000    32.0000    34.4000    42.2000    51.6000    56.3000    57.8000    65.6000    69.5000    73.4000    75.8000    72.7000    78.9000    85.2000    92.2000    96.9000   101.6000   109.4000   114.1000   111.7000   116.4000   120.3000   122.7000   126.6000   128.9000   137.5000   145.3000   150.8000   154.7000   160.9000   161.7000   164.8000   169.5000   173.4000   176.6000   183.6000   186.7000   190.6000   189.8000   194.5000   201.6000   203.1000   206.3000   210.9000   214.1000   216.4000   215.6000   218.0000   218.8000   225.0000   226.6000   229.7000   239.1000   239.1000   239.8000   245.3000   253.9000   253.9000   256.3000   258.6000   261.7000   260.9000   264.8000   268.0000   271.9000   270.3000   275.8000   276.6000   278.9000   279.7000   280.5000   281.3000   285.2000   285.9000   287.5000   289.8000   289.1000   290.6000   298.4000   299.2000   298.4000   297.7000   302.3000   303.9000   300.8000   303.9000   310.2000   313.3000   312.5000   318.0000   319.5000   321.9000   324.2000   332.0000   332.8000   332.8000   334.4000   341.4000   344.5000   346.9000   349.2000   351.6000   350.8000   349.2000   354.7000   355.5000   360.9000   363.3000   363.3000   369.5000   370.3000   368.8000   369.5000   375.0000   377.3000   380.5000   380.5000   384.4000   384.4000   384.4000   388.3000   387.5000   388.3000   385.9000   388.3000   393.8000   394.5000   390.6000   392.2000   393.8000   389.1000   390.6000   393.0000   393.8000   395.3000   395.3000   395.3000   393.0000   396.9000   394.5000   392.2000   391.4000   391.4000   393.0000   392.2000   396.9000   396.1000   398.4000   393.8000   393.0000   392.2000   390.6000   393.0000   394.5000   393.0000   393.8000   395.3000   385.2000   385.9000   385.9000   382.8000   382.0000   386.7000   385.2000   383.6000   385.9000   381.3000   378.1000   379.7000   381.3000   377.3000   382.0000   383.6000   381.3000   378.1000   378.1000   374.2000   371.9000   371.1000   374.2000   374.2000   375.8000   371.1000   365.6000   364.1000   361.7000   361.7000   359.4000   361.7000   361.7000   364.1000   363.3000   360.9000   356.3000   353.9000   350.0000   349.2000   346.1000   340.6000   341.4000   337.5000   343.0000   341.4000   334.4000   334.4000   331.3000   332.0000   330.5000   329.7000   328.1000   327.3000   329.7000   324.2000   325.8000   325.0000   319.5000   315.6000   318.0000   317.2000   313.3000   312.5000   316.4000   309.4000   309.4000   307.8000   303.1000   305.5000   303.9000   303.9000   304.7000   298.4000   293.8000   290.6000   290.6000   285.2000   285.2000   284.4000   282.8000   278.1000   280.5000   277.3000   273.4000   271.1000   268.0000   268.0000   260.9000   259.4000   257.8000   256.3000   250.0000   244.5000   242.2000   238.3000   236.7000   235.2000   229.7000   224.2000   225.8000   219.5000   213.3000   207.8000   207.0000   205.5000   205.5000   203.1000   200.0000   194.5000   188.3000   184.4000   172.7000   168.8000   167.2000   160.9000   157.8000   154.7000   150.8000   146.1000   145.3000   137.5000   132.8000   130.5000   123.4000   118.8000   118.0000   112.5000   109.4000   105.5000   100.0000    93.0000    85.9000    85.2000    81.3000    72.7000    69.5000    65.6000    56.3000    53.1000    47.7000    46.1000    36.7000    37.5000    34.4000    26.6000    21.9000    19.5000    12.5000     4.7000     1.6000    -3.1000   -12.5000   -18.8000   -21.1000   -28.1000   -31.3000   -39.1000   -46.9000   -49.2000   -52.3000   -60.9000   -68.8000   -69.5000   -74.2000   -79.7000   -86.7000   -90.6000   -96.1000  -102.3000  -105.5000  -110.9000  -116.4000  -119.5000  -122.7000  -127.3000  -134.4000  -143.8000  -148.4000  -153.1000  -160.2000  -163.3000  -166.4000  -168.0000  -171.1000  -178.9000  -185.9000  -186.7000  -186.7000  -193.0000  -193.0000  -199.2000  -200.8000  -203.1000  -209.4000  -212.5000  -217.2000  -222.7000  -226.6000  -232.8000  -236.7000  -240.6000  -243.0000  -248.4000  -251.6000  -255.5000  -259.4000  -266.4000  -271.1000  -266.4000  -271.1000  -280.5000  -282.8000  -284.4000  -286.7000  -289.1000  -292.2000  -293.8000  -296.9000  -297.7000  -302.3000  -303.1000  -307.8000  -307.0000  -307.8000  -309.4000  -309.4000  -309.4000  -312.5000  -316.4000  -317.2000  -324.2000  -321.1000  -321.9000  -326.6000  -329.7000  -326.6000  -331.3000  -332.0000  -336.7000  -339.8000  -344.5000  -346.9000  -349.2000  -351.6000  -349.2000  -347.7000  -352.3000  -351.6000  -352.3000  -353.1000  -353.9000  -354.7000  -355.5000  -359.4000  -357.0000  -358.6000  -367.2000  -368.8000  -367.2000  -369.5000  -370.3000  -368.8000  -366.4000  -372.7000  -375.0000  -388.3000  -395.3000  -403.9000  -418.0000  -434.4000  -448.4000  -461.7000  -479.7000  -489.8000  -503.1000  -518.8000  -530.5000  -535.9000  -538.3000  -543.0000  -544.5000  -546.9000  -553.9000  -563.3000  -573.4000  -577.3000  -580.5000  -586.7000  -596.1000  -600.8000  -604.7000  -610.9000  -618.0000  -621.9000  -634.4000  -643.0000  -647.7000  -658.6000  -668.8000  -677.3000  -688.3000  -696.1000  -704.7000  -712.5000  -715.6000  -721.1000  -724.2000  -721.1000  -724.2000  -728.1000  -727.3000  -725.0000  -728.9000  -731.3000  -728.9000  -724.2000  -718.0000  -716.4000  -715.6000  -714.8000  -710.9000  -711.7000  -709.4000  -707.8000  -708.6000  -712.5000  -707.0000  -705.5000  -706.3000  -705.5000  -702.3000  -698.4000  -694.5000  -693.0000  -686.7000  -681.3000  -677.3000  -671.1000  -670.3000  -667.2000  -664.1000  -664.8000  -655.5000  -643.8000  -635.9000  -637.5000  -625.0000  -619.5000  -617.2000  -610.9000  -603.1000  -593.8000  -584.4000  -574.2000  -567.2000  -564.1000  -556.3000  -556.3000  -550.0000  -544.5000  -537.5000  -531.3000  -525.0000  -518.0000  -514.8000  -512.5000  -508.6000  -505.5000  -501.6000  -496.9000  -489.8000  -483.6000  -479.7000  -472.7000  -470.3000  -468.8000  -468.0000  -466.4000  -464.1000  -463.3000  -458.6000  -459.4000  -458.6000  -455.5000  -453.9000  -452.3000  -446.9000  -447.7000  -443.8000  -436.7000  -438.3000  -437.5000  -440.6000  -438.3000  -437.5000  -432.8000  -429.7000  -427.3000  -419.5000  -410.9000  -402.3000  -402.3000  -399.2000  -398.4000  -394.5000  -394.5000  -394.5000  -389.1000  -382.0000  -381.3000  -376.6000  -371.1000  -362.5000  -358.6000  -364.1000  -364.1000  -364.8000  -365.6000  -363.3000  -359.4000  -354.7000  -356.3000  -354.7000  -353.9000  -357.8000  -358.6000  -357.0000  -347.7000  -332.8000  -328.1000  -338.3000  -346.1000  -354.7000  -360.9000  -364.8000  -354.7000  -346.1000  -344.5000  -346.1000  -349.2000  -357.8000  -378.1000  -398.4000  -410.2000  -415.6000  -414.1000  -397.7000  -375.0000  -357.8000  -339.1000  -327.3000  -308.6000  -286.7000  -269.5000  -254.7000  -237.5000  -225.8000  -214.1000  -201.6000  -189.8000  -182.8000  -169.5000  -157.0000  -147.7000  -143.0000  -133.6000  -125.0000  -122.7000  -114.1000  -104.7000   -95.3000   -85.2000   -79.7000   -73.4000   -62.5000   -56.3000   -50.8000   -43.8000   -36.7000   -28.9000   -22.7000   -15.6000    -6.3000    -0.8000     6.3000    13.3000    12.5000    15.6000    25.0000    35.9000    36.7000    43.0000    49.2000    55.5000    56.3000    58.6000    62.5000    71.1000    79.7000    82.8000    89.1000    97.7000    98.4000   100.8000   103.9000   107.0000   112.5000   122.7000   127.3000   132.8000   138.3000   143.8000   152.3000   153.9000   153.1000   159.4000   165.6000   168.8000   174.2000   181.3000   181.3000   185.2000   186.7000   195.3000   206.3000   210.9000   217.2000   221.1000   227.3000   228.9000   232.0000   234.4000   238.3000   237.5000   241.4000   249.2000   255.5000   257.8000   261.7000   263.3000   265.6000   265.6000   272.7000   279.7000   280.5000   278.9000   278.1000   278.9000   278.1000   273.4000   272.7000   273.4000   269.5000   268.8000   272.7000   274.2000   273.4000   275.8000   275.0000   273.4000   275.0000   278.9000   278.9000   275.8000   280.5000   285.2000   284.4000   283.6000   284.4000   288.3000   296.1000   303.9000   305.5000   307.0000   313.3000   313.3000   316.4000   318.0000   320.3000   318.0000   321.9000   329.7000   328.9000   332.8000   338.3000   341.4000   344.5000   341.4000   346.9000   344.5000   350.8000   357.0000   360.2000   365.6000   366.4000   369.5000   371.1000   377.3000   383.6000   391.4000   396.9000   400.8000   400.8000   406.3000   413.3000   413.3000   412.5000   416.4000   421.1000   428.9000   431.3000   435.2000   435.9000   438.3000   436.7000   439.1000   441.4000   445.3000   446.1000   441.4000   439.1000   432.8000   432.8000   428.1000   425.0000   420.3000   414.1000   408.6000   401.6000   395.3000   393.8000   388.3000   380.5000   372.7000   371.9000   367.2000   366.4000   364.1000   358.6000   355.5000   350.8000   345.3000   343.0000   339.1000   334.4000   334.4000   340.6000   344.5000   346.1000   348.4000   352.3000   351.6000   353.9000   359.4000   365.6000   371.9000   375.8000   375.8000   378.9000   384.4000   382.8000   384.4000   384.4000   383.6000   388.3000   389.8000   393.0000   396.9000   396.9000   396.1000   397.7000   397.7000   399.2000   402.3000   403.9000   400.0000   401.6000   400.0000   396.9000   398.4000   396.9000   391.4000   396.9000   398.4000   400.0000   398.4000   400.0000   399.2000   396.1000   395.3000   393.8000   393.8000   396.1000   391.4000   392.2000   388.3000   384.4000   380.5000   378.9000   381.3000   379.7000   378.9000   376.6000   371.9000   371.1000   369.5000   369.5000   364.8000   358.6000   353.9000   354.7000   350.0000   350.0000   348.4000   343.8000   332.8000   332.0000   332.0000   332.0000   331.3000   331.3000   330.5000   331.3000   328.9000   322.7000   319.5000   318.8000   310.9000   308.6000   307.8000   307.8000   304.7000   300.0000   297.7000   293.0000   289.8000   289.1000   287.5000   288.3000   286.7000   280.5000   274.2000   268.8000   264.8000   264.1000   257.0000   254.7000   249.2000   247.7000   246.9000   245.3000   239.1000   235.2000   231.3000   227.3000   221.9000   218.8000   214.8000   209.4000   210.2000   203.1000   196.9000   193.8000   190.6000   184.4000   182.0000   181.3000   174.2000   172.7000   170.3000   164.1000   156.3000   154.7000   150.8000   147.7000   141.4000   139.1000   138.3000   133.6000   131.3000   119.5000   116.4000   110.9000   111.7000   107.8000   107.8000   100.8000    96.1000    89.8000    88.3000    80.5000    74.2000    70.3000    64.1000    57.0000    54.7000    48.4000    39.1000    32.8000    30.5000    25.8000    21.9000    17.2000    13.3000     7.0000     0.0000    -3.1000   -11.7000   -21.9000   -27.3000   -38.3000   -43.0000   -50.0000   -51.6000   -57.0000   -62.5000   -69.5000   -75.0000   -78.9000   -86.7000   -94.5000   -98.4000  -102.3000  -106.3000  -116.4000  -125.8000  -129.7000  -132.0000  -138.3000  -145.3000  -144.5000  -148.4000  -153.9000  -165.6000  -173.4000  -177.3000  -181.3000  -189.1000  -189.1000  -190.6000  -197.7000  -200.8000  -205.5000  -214.8000  -221.9000  -225.8000  -230.5000  -232.0000  -229.7000  -235.2000  -239.8000  -245.3000  -255.5000  -263.3000  -264.8000  -268.8000  -276.6000  -275.8000  -277.3000  -280.5000  -285.2000  -288.3000  -293.8000  -298.4000  -302.3000  -304.7000  -307.8000  -314.8000  -314.1000  -315.6000  -319.5000  -330.5000  -333.6000  -329.7000  -336.7000  -336.7000  -340.6000  -344.5000  -349.2000  -355.5000  -364.8000  -368.0000  -375.8000  -381.3000  -376.6000  -378.9000  -382.0000  -385.2000  -388.3000  -395.3000  -397.7000  -395.3000  -403.1000  -409.4000  -412.5000  -418.0000  -416.4000  -420.3000  -427.3000  -430.5000  -432.8000  -440.6000  -445.3000  -445.3000  -444.5000  -446.1000  -449.2000  -451.6000  -454.7000  -464.8000  -471.1000  -466.4000  -470.3000  -475.0000  -471.9000  -478.9000  -483.6000  -491.4000  -494.5000  -496.9000  -503.9000  -504.7000  -504.7000  -505.5000  -511.7000  -518.8000  -521.1000  -522.7000  -527.3000  -527.3000  -526.6000  -532.0000  -536.7000  -543.8000  -548.4000  -549.2000  -556.3000  -564.1000  -564.8000  -566.4000  -572.7000  -579.7000  -584.4000  -586.7000  -591.4000  -594.5000  -599.2000  -600.8000  -602.3000  -605.5000  -610.2000  -614.1000  -617.2000  -620.3000  -620.3000  -627.3000  -636.7000  -635.9000  -635.2000  -640.6000  -643.8000  -637.5000  -644.5000  -650.0000  -649.2000  -647.7000  -645.3000  -643.0000  -645.3000  -646.1000  -646.9000  -647.7000  -649.2000  -643.8000  -643.8000  -640.6000  -632.8000  -633.6000  -632.0000  -630.5000  -631.3000  -628.1000  -627.3000  -623.4000  -619.5000  -617.2000  -611.7000  -607.8000  -609.4000  -607.8000  -603.9000  -602.3000  -600.0000  -594.5000  -587.5000  -586.7000  -586.7000  -582.8000  -581.3000  -575.8000  -568.0000  -570.3000  -568.8000  -568.0000  -561.7000  -553.9000  -549.2000  -545.3000  -544.5000  -542.2000  -539.1000  -539.1000  -532.8000  -532.8000  -529.7000  -528.9000  -526.6000  -530.5000  -525.8000  -520.3000  -518.0000  -515.6000  -516.4000  -510.9000  -508.6000  -511.7000  -508.6000  -510.9000  -509.4000  -505.5000  -500.8000  -493.8000  -493.0000  -488.3000  -488.3000  -483.6000  -485.9000  -484.4000  -482.8000  -477.3000  -482.0000  -477.3000  -471.1000  -466.4000  -467.2000  -464.1000  -463.3000  -464.1000  -460.2000  -457.8000  -457.0000  -451.6000  -450.8000  -450.0000  -450.0000  -448.4000  -446.1000  -440.6000  -432.8000  -430.5000  -430.5000  -426.6000  -427.3000  -425.8000  -420.3000  -418.0000  -416.4000  -415.6000  -411.7000  -403.1000  -400.0000  -396.1000  -392.2000  -391.4000  -390.6000  -389.8000  -382.0000  -378.1000  -369.5000  -364.1000  -367.2000  -365.6000  -359.4000  -353.9000  -352.3000  -343.8000  -340.6000  -336.7000  -335.2000  -332.0000  -329.7000  -325.0000  -321.9000  -314.1000  -312.5000  -304.7000  -302.3000  -298.4000  -295.3000  -293.0000  -288.3000  -283.6000  -277.3000  -271.9000  -267.2000  -264.1000  -255.5000  -248.4000  -245.3000  -239.8000  -243.8000  -235.2000  -235.2000  -228.9000  -225.0000  -220.3000  -214.1000  -217.2000  -206.3000  -198.4000  -195.3000  -187.5000  -179.7000  -180.5000  -175.0000  -168.8000  -168.0000  -163.3000  -156.3000  -148.4000  -139.8000  -131.3000  -126.6000  -121.9000  -115.6000  -115.6000  -107.8000  -100.8000   -93.0000   -83.6000   -78.1000   -71.9000   -65.6000   -63.3000   -63.3000   -58.6000   -51.6000   -48.4000   -39.1000   -30.5000   -27.3000   -25.0000   -14.8000   -13.3000   -10.9000    -5.5000    -3.1000     0.8000    10.2000    13.3000    19.5000    24.2000    28.9000    28.1000    33.6000    39.8000    44.5000    47.7000    53.9000    57.0000    60.2000    63.3000    66.4000    73.4000    77.3000    77.3000    84.4000    89.1000    95.3000   100.0000   105.5000   107.0000   110.2000   116.4000   122.7000   127.3000   133.6000   138.3000   139.8000   140.6000   146.9000   148.4000   155.5000   155.5000   159.4000   164.1000   169.5000   171.9000   176.6000   176.6000   176.6000   181.3000   185.2000   189.1000   193.8000   200.0000   204.7000   209.4000   210.2000   212.5000   216.4000   224.2000   221.9000   223.4000   235.9000   239.1000   238.3000   239.1000   246.1000   250.0000   249.2000   252.3000   260.9000   264.8000   266.4000   270.3000   275.8000   274.2000   273.4000   278.1000   285.2000   288.3000   287.5000   293.8000   296.1000   297.7000   298.4000   303.9000   306.3000   307.8000   310.2000   319.5000   320.3000   321.9000   325.0000   330.5000   328.9000   330.5000   334.4000   335.9000   338.3000   339.1000   341.4000   347.7000   346.9000   345.3000   350.0000   350.8000   350.0000   352.3000   357.8000   366.4000   365.6000   369.5000   368.0000   371.1000   375.0000   375.0000   378.1000   382.0000   380.5000   383.6000   385.9000   389.1000   386.7000   387.5000   389.8000   388.3000   393.0000   394.5000   395.3000   396.1000   394.5000   396.1000   399.2000   398.4000   398.4000   400.0000   404.7000   403.1000   407.8000   402.3000   404.7000   407.0000   402.3000   406.3000   409.4000   410.2000   406.3000   403.9000   405.5000   402.3000   401.6000   404.7000   407.8000   407.0000   408.6000   407.0000   403.1000   403.9000   403.9000   401.6000   400.0000   400.0000   400.8000   403.1000   398.4000   400.0000   398.4000   396.1000   392.2000   391.4000   388.3000   392.2000   389.1000   389.8000   389.1000   383.6000   376.6000   375.0000   377.3000   377.3000   374.2000   378.1000   375.0000   369.5000   365.6000   361.7000   357.8000   356.3000   357.8000   357.0000   353.9000   352.3000   347.7000   348.4000   346.9000   347.7000   340.6000   339.8000   338.3000   335.2000   334.4000   335.2000   333.6000   330.5000   325.0000   325.0000   319.5000   315.6000   318.0000   316.4000   310.9000   310.9000   305.5000   300.8000   295.3000   296.9000   294.5000   289.8000   285.2000   280.5000   281.3000   277.3000   278.1000   275.8000   275.0000   274.2000   271.1000   271.1000   271.1000   257.8000   246.1000   244.5000   245.3000   238.3000   234.4000   228.9000   229.7000   226.6000   225.8000   218.8000   215.6000   210.2000   210.9000   208.6000   202.3000   200.0000   195.3000   198.4000   203.1000   199.2000   195.3000   185.9000   181.3000   180.5000   177.3000   177.3000   173.4000   171.9000   164.8000   159.4000   157.8000   157.0000   152.3000   148.4000   145.3000   143.0000   141.4000   137.5000   130.5000   122.7000   119.5000   118.8000   114.1000   112.5000   110.2000   105.5000   101.6000    98.4000    89.8000    85.2000    84.4000    80.5000    78.9000    75.8000    70.3000    61.7000    60.2000    59.4000    50.8000    50.0000    47.7000    40.6000    35.2000    32.0000    25.0000    22.7000    23.4000    18.8000    13.3000    10.2000     7.0000     5.5000    -3.9000    -6.3000   -14.1000   -18.0000   -27.3000   -28.1000   -32.0000   -41.4000   -46.1000   -50.8000   -55.5000   -62.5000   -72.7000   -78.1000   -80.5000   -82.8000   -91.4000   -92.2000   -96.1000  -103.9000  -109.4000  -110.9000  -114.8000  -121.9000  -124.2000  -131.3000  -137.5000  -145.3000  -148.4000  -152.3000  -157.0000  -166.4000  -168.0000  -174.2000  -176.6000  -178.1000  -182.8000  -190.6000  -197.7000  -200.8000  -206.3000  -212.5000  -217.2000  -220.3000  -221.1000  -221.9000  -228.1000  -235.2000  -238.3000  -245.3000  -250.8000  -253.1000  -256.3000  -260.2000  -264.1000  -269.5000  -271.9000  -275.8000  -285.2000  -285.2000  -285.2000  -294.5000  -296.9000  -298.4000  -296.9000  -304.7000  -312.5000  -318.0000  -320.3000  -325.8000  -328.9000  -335.9000  -339.1000  -337.5000  -339.1000  -343.0000  -344.5000  -352.3000  -357.8000  -358.6000  -360.9000  -367.2000  -371.9000  -374.2000  -375.8000  -381.3000  -384.4000  -385.9000  -389.8000  -391.4000  -390.6000  -392.2000  -400.0000  -404.7000  -406.3000  -416.4000  -420.3000  -422.7000  -422.7000  -425.8000  -428.9000  -430.5000  -432.0000  -434.4000  -445.3000  -441.4000  -440.6000  -443.8000  -446.1000  -447.7000  -447.7000  -451.6000  -461.7000  -468.0000  -468.8000  -475.0000  -475.0000  -471.1000  -475.8000  -479.7000  -482.0000  -485.9000  -493.0000  -493.8000  -496.1000  -499.2000  -498.4000  -500.8000  -507.0000  -504.7000  -510.9000  -514.8000  -518.0000  -519.5000  -521.1000  -522.7000  -520.3000  -522.7000  -529.7000  -532.0000  -534.4000  -537.5000  -539.8000  -539.8000  -539.1000  -539.1000  -543.8000  -550.0000  -553.9000  -554.7000  -558.6000  -555.5000  -557.0000  -557.0000  -557.0000  -557.0000  -554.7000  -559.4000  -560.9000  -563.3000  -561.7000  -565.6000  -567.2000  -566.4000  -569.5000  -575.0000  -571.9000  -574.2000  -572.7000  -576.6000  -575.8000  -577.3000  -578.9000  -577.3000  -578.1000  -575.8000  -575.0000  -577.3000  -576.6000  -571.9000  -571.1000  -568.0000  -575.0000  -573.4000  -571.1000  -571.9000  -570.3000  -569.5000  -566.4000  -563.3000  -560.2000  -560.9000  -561.7000  -560.9000  -562.5000  -562.5000  -563.3000  -564.1000  -560.9000  -555.5000  -550.8000  -550.0000  -546.1000  -546.9000  -549.2000  -545.3000  -539.1000  -539.1000  -538.3000  -533.6000  -529.7000  -524.2000  -519.5000  -521.9000  -524.2000  -522.7000  -522.7000  -524.2000  -520.3000  -514.1000  -514.8000  -515.6000  -514.1000  -508.6000  -505.5000  -502.3000  -502.3000  -497.7000  -495.3000  -493.8000  -493.0000  -493.0000  -486.7000  -482.8000  -481.3000  -478.9000  -474.2000  -470.3000  -469.5000  -468.0000  -469.5000  -462.5000  -463.3000  -460.9000  -456.3000  -451.6000  -446.1000  -446.9000  -443.8000  -441.4000  -442.2000  -439.1000  -439.1000  -438.3000  -439.1000  -433.6000  -428.1000  -423.4000  -421.1000  -420.3000  -410.2000  -410.2000  -405.5000  -400.8000  -398.4000  -397.7000  -396.1000  -391.4000  -390.6000  -386.7000  -386.7000  -377.3000  -370.3000  -366.4000  -360.9000  -358.6000  -360.2000  -363.3000  -353.1000  -348.4000  -347.7000  -342.2000  -336.7000  -333.6000  -332.8000  -328.9000  -325.0000  -320.3000  -318.0000  -314.1000  -314.8000  -304.7000  -302.3000  -300.8000  -293.8000  -288.3000  -287.5000  -287.5000  -286.7000  -280.5000  -281.3000  -271.1000  -266.4000  -264.8000  -263.3000  -260.9000  -253.9000  -250.8000  -244.5000  -237.5000  -232.0000  -223.4000  -221.9000  -221.9000  -218.0000  -214.1000  -207.8000  -207.0000  -191.4000  -190.6000  -185.9000  -182.0000  -181.3000  -175.8000  -166.4000  -163.3000  -161.7000  -155.5000  -146.9000  -142.2000  -136.7000  -126.6000  -128.9000  -124.2000  -115.6000  -111.7000  -103.9000   -95.3000   -88.3000   -82.0000   -75.8000   -68.8000   -67.2000   -59.4000   -50.0000   -43.8000   -36.7000   -31.3000   -28.1000   -24.2000   -21.1000   -14.8000    -7.8000    -3.9000     3.1000     9.4000    13.3000    18.0000    21.9000    25.8000    32.8000    36.7000    41.4000    47.7000    53.9000    56.3000    64.1000    65.6000    64.1000    67.2000    72.7000    80.5000    81.3000    86.7000    95.3000    96.9000   100.8000   107.0000   110.9000   107.8000   108.6000   110.2000   118.0000   123.4000   128.9000   132.0000   133.6000   131.3000   135.2000   132.8000   139.1000   145.3000   145.3000   146.1000   152.3000   150.0000   150.8000   157.0000   164.1000   163.3000   166.4000   173.4000   176.6000   180.5000   181.3000   182.8000   185.9000   191.4000   192.2000   199.2000   207.8000   210.2000   209.4000   215.6000   216.4000   218.8000   221.9000   226.6000   229.7000   232.8000   237.5000   242.2000   247.7000   252.3000   254.7000   262.5000   264.1000   267.2000   276.6000   279.7000   282.8000   287.5000   290.6000   295.3000   293.8000   292.2000   291.4000   290.6000   285.9000   273.4000   267.2000   245.3000   225.8000   219.5000   205.5000   193.0000   187.5000   182.8000   182.0000   181.3000   183.6000   189.8000   196.1000   201.6000   209.4000   215.6000   222.7000   228.1000   235.9000   246.1000   254.7000   260.2000   265.6000   271.1000   282.0000   291.4000   299.2000   307.8000   311.7000   318.0000   322.7000   332.0000   339.8000   346.9000   357.8000   363.3000   372.7000   377.3000   384.4000   383.6000   389.8000   398.4000   405.5000   410.2000   416.4000   421.9000   425.0000   423.4000   426.6000   432.0000   439.8000   440.6000   443.0000   446.1000   447.7000   450.0000   453.9000   454.7000   454.7000   460.2000   457.8000   460.2000   468.0000   464.8000   461.7000   461.7000   457.8000   454.7000   455.5000   458.6000   461.7000   460.9000   463.3000   463.3000   461.7000   459.4000   457.0000   457.0000   450.8000   451.6000   455.5000   452.3000   447.7000   445.3000   440.6000   441.4000   439.8000   438.3000   433.6000   434.4000   433.6000   428.9000   426.6000   421.9000   418.0000   412.5000   412.5000   407.8000   403.1000   405.5000   403.9000   401.6000   399.2000   396.9000   393.0000   388.3000   383.6000   382.0000   379.7000   378.1000   378.9000   373.4000   371.1000   368.8000   368.8000   368.8000   366.4000   368.0000   372.7000   375.8000   371.1000   370.3000   374.2000   375.8000   372.7000   378.9000   379.7000   385.2000   383.6000   385.9000   385.2000   387.5000   386.7000   388.3000   393.0000   399.2000   401.6000   404.7000   407.8000   407.0000   407.8000   409.4000   410.2000   412.5000   413.3000   421.9000   418.8000   420.3000   421.1000   422.7000   413.3000   416.4000   420.3000   416.4000   416.4000   418.8000   415.6000   413.3000   416.4000   414.1000   407.0000   403.1000   400.0000   396.9000   396.1000   386.7000   378.9000   370.3000   361.7000   356.3000   347.7000   339.8000   329.7000   318.0000   314.1000   305.5000   300.8000   290.6000   285.2000   275.8000   269.5000   268.0000   265.6000   261.7000   259.4000   258.6000   247.7000   243.0000   235.2000   215.6000   193.0000   179.7000   157.8000   128.9000    95.3000    63.3000    29.7000    13.3000     7.0000    -3.9000   -14.8000   -36.7000   -56.3000   -80.5000  -106.3000  -134.4000  -163.3000  -183.6000  -210.2000  -232.8000  -249.2000  -261.7000  -280.5000  -316.4000  -360.2000  -406.3000  -453.1000  -493.0000  -532.0000  -558.6000  -582.0000  -601.6000  -621.9000  -643.8000  -665.6000  -683.6000  -700.0000  -707.0000  -703.9000  -700.0000  -689.8000  -682.0000  -674.2000  -667.2000  -653.1000  -632.0000  -594.5000  -551.6000  -515.6000  -491.4000  -475.8000  -467.2000  -463.3000  -452.3000  -439.1000  -429.7000  -411.7000  -393.0000  -379.7000  -362.5000  -354.7000  -346.1000  -335.9000  -324.2000  -317.2000  -312.5000  -302.3000  -294.5000  -284.4000  -277.3000  -268.8000  -256.3000  -246.9000  -240.6000  -241.4000  -249.2000  -259.4000  -268.0000  -277.3000  -288.3000  -292.2000  -293.0000  -288.3000  -275.8000  -265.6000  -253.9000  -238.3000  -225.8000  -218.0000  -209.4000  -200.8000  -189.8000  -185.9000  -177.3000  -171.1000  -169.5000  -164.8000  -160.9000  -157.0000  -155.5000  -150.8000  -146.9000  -145.3000  -143.0000  -141.4000  -140.6000  -142.2000  -142.2000  -145.3000  -142.2000  -139.8000  -137.5000  -139.1000  -130.5000  -129.7000  -135.9000  -134.4000  -128.1000  -128.9000  -128.1000  -131.3000  -134.4000  -140.6000  -144.5000  -147.7000  -153.9000  -157.0000  -158.6000  -160.2000  -163.3000  -167.2000  -171.1000  -169.5000  -172.7000  -179.7000  -182.8000  -187.5000  -191.4000  -199.2000  -206.3000  -211.7000  -215.6000  -221.9000  -225.8000  -231.3000  -238.3000  -243.0000  -247.7000  -249.2000  -255.5000  -261.7000  -267.2000  -269.5000  -275.8000  -279.7000  -282.8000  -285.2000  -291.4000  -295.3000  -303.1000  -307.0000  -309.4000  -316.4000  -324.2000  -329.7000  -333.6000  -335.9000  -338.3000  -339.1000  -344.5000  -352.3000  -355.5000  -360.2000  -364.8000  -367.2000  -368.8000  -371.1000  -377.3000  -379.7000  -385.9000  -389.1000  -392.2000  -395.3000  -393.0000  -396.9000  -398.4000  -403.1000  -407.0000  -411.7000  -409.4000  -411.7000  -412.5000  -414.8000  -415.6000  -421.1000  -424.2000  -424.2000  -430.5000  -434.4000  -432.0000  -436.7000  -437.5000  -435.2000  -437.5000  -438.3000  -439.1000  -440.6000  -443.0000  -449.2000  -446.9000  -446.9000  -448.4000  -444.5000  -448.4000  -451.6000  -453.1000  -451.6000  -454.7000  -453.9000  -454.7000  -453.1000  -456.3000  -458.6000  -460.2000  -465.6000  -468.0000  -467.2000  -466.4000  -468.0000  -468.8000  -468.0000  -468.8000  -471.9000  -472.7000  -476.6000  -468.8000  -463.3000  -463.3000  -465.6000  -460.2000  -464.8000  -462.5000  -460.9000  -464.8000  -461.7000  -460.9000  -460.2000  -457.0000  -450.8000  -443.8000  -442.2000  -443.0000  -441.4000  -442.2000  -440.6000  -435.2000  -431.3000  -428.9000  -428.1000  -425.0000  -421.9000  -425.8000  -421.1000  -419.5000  -416.4000  -415.6000  -410.9000  -407.8000  -407.0000  -407.8000  -405.5000  -402.3000  -404.7000  -403.9000  -401.6000  -394.5000  -393.8000  -395.3000  -396.1000  -394.5000  -393.8000  -392.2000  -385.9000  -386.7000  -383.6000  -380.5000  -381.3000  -377.3000  -374.2000  -371.9000  -371.1000  -367.2000  -368.0000  -364.8000  -361.7000  -360.2000  -360.9000  -359.4000  -355.5000  -349.2000  -343.8000  -336.7000  -335.2000  -333.6000  -328.9000  -327.3000  -327.3000  -328.1000  -322.7000  -316.4000  -313.3000  -307.8000  -303.9000  -303.9000  -300.0000  -298.4000  -294.5000  -293.0000  -290.6000  -284.4000  -280.5000  -271.1000  -266.4000  -267.2000  -266.4000  -260.2000  -261.7000  -258.6000  -253.1000  -250.0000  -244.5000  -237.5000  -238.3000  -235.2000  -232.8000  -225.8000  -218.0000  -211.7000  -208.6000  -201.6000  -203.1000  -196.1000  -188.3000  -187.5000  -178.1000  -180.5000  -175.0000  -168.8000  -164.8000  -162.5000  -155.5000  -152.3000  -150.8000  -146.1000  -135.9000  -133.6000  -126.6000  -122.7000  -117.2000  -108.6000  -103.1000  -100.0000   -94.5000   -88.3000   -80.5000   -75.8000   -66.4000   -63.3000   -59.4000   -54.7000   -48.4000   -41.4000   -40.6000   -34.4000   -26.6000   -23.4000   -18.0000   -10.2000    -3.1000    -3.1000    -0.8000     5.5000    12.5000    17.2000    21.1000    26.6000    31.3000    34.4000    40.6000    43.8000    44.5000    53.1000    60.2000    66.4000    70.3000    69.5000    74.2000    80.5000    83.6000    85.2000    92.2000    96.1000   100.8000   101.6000   106.3000   115.6000   118.8000   121.9000   127.3000   133.6000   136.7000   141.4000   146.1000   147.7000   150.8000   154.7000   159.4000   164.8000   167.2000   166.4000   175.0000   181.3000   185.9000   188.3000   196.1000   200.0000   199.2000   202.3000   208.6000   209.4000   209.4000   218.0000   222.7000   228.1000   228.1000   226.6000   235.9000   239.1000   243.0000   249.2000   257.8000   259.4000   261.7000   268.0000   264.8000   264.8000   269.5000   276.6000   280.5000   280.5000   289.8000   296.9000   296.9000   296.1000   303.9000   305.5000   307.0000   312.5000   317.2000   321.1000   325.8000   329.7000   325.0000   328.9000   330.5000   331.3000   338.3000   342.2000   342.2000   346.1000   348.4000   352.3000   350.0000   354.7000   362.5000   365.6000   371.1000   371.9000   378.1000   380.5000   382.8000   382.0000   388.3000   386.7000   391.4000   393.0000   399.2000   403.9000   402.3000   403.9000   406.3000   407.8000   408.6000   411.7000   418.0000   418.8000   418.8000   420.3000   424.2000   420.3000   422.7000   424.2000   427.3000   431.3000   428.9000   431.3000   433.6000   434.4000   434.4000   435.2000   433.6000   431.3000   431.3000   434.4000   439.1000   440.6000   439.1000   439.1000   435.2000   435.2000   440.6000   439.8000   441.4000   441.4000   440.6000   444.5000   445.3000   440.6000   443.8000   442.2000   442.2000   442.2000   444.5000   444.5000   443.0000   442.2000   439.8000   438.3000   436.7000   435.2000   435.9000   438.3000   437.5000   436.7000   432.8000   432.0000   428.1000   426.6000   426.6000   432.8000   432.0000   430.5000   426.6000   428.9000   423.4000   420.3000   418.0000   417.2000   411.7000   418.8000   415.6000   409.4000   408.6000   404.7000   400.8000   405.5000   406.3000   405.5000   405.5000   402.3000   403.1000   401.6000   405.5000   398.4000   396.1000   396.1000   393.0000   394.5000   393.8000   389.1000   389.1000   383.6000   382.8000   379.7000   376.6000   376.6000   371.9000   370.3000   371.1000   371.9000   372.7000   368.8000   368.8000   362.5000   361.7000   361.7000   359.4000   351.6000   347.7000   349.2000   344.5000   339.8000   337.5000   340.6000   337.5000   336.7000   339.8000   337.5000   335.2000   331.3000   322.7000   320.3000   318.0000   314.8000   312.5000   310.2000   309.4000   303.1000   300.0000   293.8000   293.0000   292.2000   291.4000   286.7000   282.8000   279.7000   277.3000   275.8000   268.0000   262.5000   254.7000   248.4000   249.2000   246.9000   245.3000   242.2000   235.9000   230.5000   227.3000   221.9000   219.5000   217.2000   215.6000   207.8000   205.5000   200.8000   195.3000   188.3000   185.9000   183.6000   178.1000   175.0000   168.8000   165.6000   159.4000   157.0000   154.7000   146.9000   146.9000   143.0000   140.6000   139.8000   136.7000   127.3000   122.7000   117.2000   115.6000   110.9000   106.3000   107.0000   103.9000    99.2000    93.8000    85.9000    82.0000    79.7000    77.3000    76.6000    68.8000    63.3000    59.4000    57.0000    50.8000    46.9000    41.4000    36.7000    32.0000    28.9000    28.1000    24.2000    18.8000    13.3000     3.9000     0.0000    -6.3000   -10.9000   -14.8000   -18.0000   -22.7000   -29.7000   -35.9000   -42.2000   -44.5000   -54.7000   -59.4000   -64.8000   -65.6000   -73.4000   -75.0000   -82.8000   -90.6000   -94.5000   -99.2000  -103.9000  -106.3000  -109.4000  -111.7000  -117.2000  -123.4000  -128.9000  -135.2000  -140.6000  -146.9000  -149.2000  -151.6000  -154.7000  -164.8000  -165.6000  -171.1000  -175.8000  -179.7000  -179.7000  -185.9000  -195.3000  -198.4000  -200.8000  -208.6000  -215.6000  -220.3000  -222.7000  -225.8000  -230.5000  -240.6000  -239.8000  -243.8000  -251.6000  -252.3000  -254.7000  -263.3000  -271.1000  -270.3000  -272.7000  -275.8000  -280.5000  -280.5000  -288.3000  -294.5000  -298.4000  -296.1000  -304.7000  -303.1000  -303.1000  -307.0000  -310.2000  -318.0000  -324.2000  -328.9000  -330.5000  -336.7000  -335.2000  -332.8000  -336.7000  -343.8000  -343.8000  -347.7000  -359.4000  -358.6000  -363.3000  -369.5000  -370.3000  -374.2000  -375.8000  -378.1000  -382.8000  -390.6000  -389.8000  -393.0000  -399.2000  -398.4000  -396.9000  -401.6000  -407.0000  -407.8000  -412.5000  -416.4000  -419.5000  -419.5000  -420.3000  -418.0000  -424.2000  -428.9000  -432.0000  -439.8000  -437.5000  -442.2000  -447.7000  -447.7000  -447.7000  -450.8000  -449.2000  -458.6000  -463.3000  -462.5000  -464.1000  -469.5000  -471.9000  -471.9000  -472.7000  -475.8000  -478.9000  -478.1000  -481.3000  -489.1000  -489.1000  -489.1000  -491.4000  -495.3000  -497.7000  -499.2000  -502.3000  -504.7000  -507.8000  -507.8000  -511.7000  -512.5000  -512.5000  -507.0000  -509.4000  -512.5000  -511.7000  -513.3000  -518.0000  -517.2000  -516.4000  -520.3000  -521.9000  -521.1000  -524.2000  -528.1000  -527.3000  -528.9000  -525.8000  -521.1000  -521.1000  -525.8000  -525.0000  -525.0000  -527.3000  -525.8000  -524.2000  -524.2000  -521.1000  -520.3000  -521.9000  -522.7000  -521.9000  -518.8000  -515.6000  -521.1000  -520.3000  -519.5000  -515.6000  -514.1000  -511.7000  -507.8000  -507.8000  -506.3000  -506.3000  -505.5000  -504.7000  -503.1000  -501.6000  -493.8000  -493.8000  -498.4000  -491.4000  -489.1000  -485.2000  -480.5000  -475.0000  -476.6000  -474.2000  -468.0000  -468.8000  -470.3000  -464.8000  -464.1000  -460.9000  -454.7000  -450.8000  -450.0000  -446.1000  -441.4000  -443.0000  -445.3000  -439.1000  -438.3000  -439.8000  -435.9000  -432.8000  -432.8000  -428.9000  -427.3000  -421.1000  -420.3000  -414.8000  -410.2000  -411.7000  -410.2000  -407.0000  -407.0000  -407.0000  -398.4000  -400.0000  -393.8000  -388.3000  -383.6000  -383.6000  -382.8000  -384.4000  -387.5000  -384.4000  -378.9000  -382.0000  -374.2000  -371.1000  -365.6000  -366.4000  -363.3000  -358.6000  -358.6000  -354.7000  -354.7000  -351.6000  -349.2000  -343.0000  -339.8000  -339.8000  -339.1000  -338.3000  -330.5000  -328.1000  -324.2000  -319.5000  -312.5000  -304.7000  -305.5000  -307.0000  -301.6000  -297.7000  -294.5000  -287.5000  -282.0000  -282.0000  -278.9000  -273.4000  -273.4000  -268.8000  -263.3000  -261.7000  -252.3000  -246.1000  -242.2000  -242.2000  -235.2000  -234.4000  -230.5000  -226.6000  -223.4000  -218.0000  -210.2000  -205.5000  -203.9000  -198.4000  -196.9000  -189.8000  -187.5000  -184.4000  -178.9000  -171.1000  -168.8000  -157.8000  -154.7000  -153.9000  -148.4000  -146.1000  -142.2000  -137.5000  -132.0000  -125.0000  -124.2000  -112.5000  -111.7000  -107.8000  -103.1000  -101.6000   -95.3000   -85.9000   -82.0000   -75.0000   -72.7000   -67.2000   -64.1000   -56.3000   -47.7000   -42.2000   -35.2000   -31.3000   -23.4000   -18.0000   -13.3000    -8.6000    -2.3000     0.0000     8.6000    18.0000    24.2000    30.5000    35.9000    37.5000    43.0000    53.9000    58.6000    61.7000    67.2000    77.3000    81.3000    89.1000    96.9000   102.3000   108.6000   118.0000   121.1000   125.8000   130.5000   138.3000   148.4000   157.0000   157.8000   163.3000   169.5000   177.3000   185.2000   193.0000   196.1000   203.1000   206.3000   210.9000   218.8000   219.5000   222.7000   228.9000   232.8000   238.3000   246.1000   250.8000   251.6000   254.7000   250.0000   246.9000   245.3000   246.9000   239.8000   232.0000   223.4000   217.2000   210.2000   210.2000   197.7000   198.4000   200.0000   203.1000   200.0000   197.7000   195.3000   193.0000   194.5000   197.7000   202.3000   203.1000   203.1000   198.4000   200.0000   199.2000   197.7000   196.9000   199.2000   195.3000   192.2000   189.1000   186.7000   187.5000   190.6000   196.1000   198.4000   200.8000   206.3000   216.4000   220.3000   222.7000   224.2000   230.5000   232.0000   235.2000   237.5000   236.7000   243.0000   242.2000   244.5000   247.7000   254.7000   253.9000   254.7000   257.8000   250.8000   241.4000   235.2000   228.1000   223.4000   212.5000   204.7000   199.2000   191.4000   182.8000   172.7000   160.2000   154.7000   146.9000   147.7000   145.3000   138.3000   135.9000   130.5000   124.2000   120.3000   118.8000   124.2000   125.8000   127.3000   135.9000   143.8000   153.1000   166.4000   176.6000   193.0000   206.3000   221.1000   233.6000   250.0000   260.9000   274.2000   288.3000   300.0000   314.1000   327.3000   342.2000   351.6000   361.7000   372.7000   385.9000   396.9000   408.6000   419.5000   432.8000   436.7000   446.9000   457.8000   466.4000   471.1000   482.0000   490.6000   494.5000   507.0000   514.8000   518.0000   526.6000   528.1000   530.5000   533.6000   538.3000   543.0000   547.7000   551.6000   556.3000   556.3000   559.4000   558.6000   558.6000   560.9000   561.7000   563.3000   565.6000   567.2000   565.6000   566.4000   563.3000   567.2000   570.3000   571.1000   571.9000   567.2000   568.8000   570.3000   567.2000   559.4000   557.0000   560.9000   555.5000   553.9000   553.1000   548.4000   544.5000   545.3000   543.8000   543.8000   541.4000   536.7000   533.6000   536.7000   532.8000   526.6000   529.7000   525.0000   522.7000   520.3000   518.8000   514.8000   516.4000   514.1000   506.3000   503.9000   500.8000   498.4000   492.2000   491.4000   489.8000   490.6000   484.4000   482.0000   475.0000   471.9000   466.4000   464.1000   460.9000   458.6000   457.8000   458.6000   457.0000   457.0000   455.5000   444.5000   443.0000   443.0000   438.3000   433.6000   434.4000   428.9000   425.8000   426.6000   416.4000   414.8000   407.0000   400.8000   400.8000   400.0000   396.1000   389.1000   386.7000   378.1000   375.0000   366.4000   360.2000   354.7000   350.8000   349.2000   343.0000   335.2000   332.8000   327.3000   320.3000   317.2000   310.9000   310.2000   305.5000   303.9000   296.1000   287.5000   280.5000   272.7000   271.9000   264.8000   266.4000   263.3000   258.6000   252.3000   246.9000   242.2000   238.3000   233.6000   226.6000   222.7000   221.1000   218.0000   216.4000   218.0000   216.4000   208.6000   207.8000   200.8000   191.4000   185.2000   175.8000   162.5000   151.6000   142.2000   128.1000   115.6000   108.6000    96.1000    87.5000    78.9000    74.2000    64.1000    52.3000    43.8000    32.0000    26.6000    22.7000    21.1000    18.0000    17.2000    11.7000     7.8000     1.6000    -5.5000   -10.2000   -19.5000   -21.9000   -24.2000   -26.6000   -28.1000   -32.8000   -35.2000   -38.3000   -42.2000   -47.7000   -50.0000   -52.3000   -57.0000   -61.7000   -66.4000   -68.0000   -73.4000   -80.5000   -85.2000   -87.5000   -92.2000   -96.1000  -100.0000  -102.3000  -110.9000  -118.0000  -122.7000  -122.7000  -124.2000  -126.6000  -129.7000  -135.2000  -144.5000  -150.0000  -155.5000  -163.3000  -168.0000  -168.8000  -168.8000  -171.9000  -178.1000  -181.3000  -184.4000  -195.3000  -207.0000  -209.4000  -214.8000  -218.8000  -218.0000  -225.8000  -231.3000  -236.7000  -243.0000  -247.7000  -250.0000  -257.8000  -264.8000  -264.1000  -269.5000  -275.8000  -277.3000  -278.9000  -283.6000  -290.6000  -292.2000  -297.7000  -303.9000  -305.5000  -310.2000  -314.8000  -316.4000  -323.4000  -330.5000  -334.4000  -338.3000  -339.1000  -340.6000  -340.6000  -342.2000  -348.4000  -352.3000  -357.8000  -360.2000  -360.9000  -361.7000  -362.5000  -367.2000  -370.3000  -378.1000  -379.7000  -379.7000  -382.0000  -380.5000  -382.0000  -387.5000  -389.1000  -389.1000  -390.6000  -394.5000  -396.1000  -396.1000  -400.8000  -401.6000  -398.4000  -400.8000  -403.9000  -409.4000  -411.7000  -411.7000  -411.7000  -410.2000  -408.6000  -410.2000  -410.2000  -409.4000  -410.2000  -408.6000  -409.4000  -409.4000  -414.1000  -416.4000  -416.4000  -410.9000  -410.9000  -412.5000  -415.6000  -417.2000  -415.6000  -413.3000  -418.0000  -418.0000  -417.2000  -421.9000  -421.9000  -422.7000  -420.3000  -421.9000  -423.4000  -420.3000  -419.5000  -418.0000  -418.8000  -425.0000  -432.0000  -430.5000  -431.3000  -428.9000  -426.6000  -425.0000  -425.0000  -428.1000  -433.6000  -439.8000  -436.7000  -438.3000  -437.5000  -437.5000  -432.8000  -435.2000  -439.1000  -439.8000  -440.6000  -447.7000  -449.2000  -451.6000  -450.8000  -445.3000  -451.6000  -458.6000  -457.8000  -465.6000  -468.8000  -466.4000  -470.3000  -471.1000  -471.1000  -472.7000  -470.3000  -472.7000  -469.5000  -470.3000  -471.9000  -475.0000  -480.5000  -478.9000  -478.9000  -477.3000  -482.0000  -485.2000  -484.4000  -481.3000  -478.1000  -474.2000  -469.5000  -471.1000  -471.9000  -471.1000  -476.6000  -486.7000  -489.1000  -500.0000  -506.3000  -514.1000  -524.2000  -533.6000  -536.7000  -542.2000  -556.3000  -566.4000  -573.4000  -578.9000  -582.0000  -590.6000  -597.7000  -607.0000  -615.6000  -629.7000  -643.8000  -655.5000  -665.6000  -675.8000  -682.0000  -690.6000  -699.2000  -707.8000  -721.9000  -728.1000  -725.8000  -726.6000  -721.1000  -714.1000  -703.9000  -696.1000  -692.2000  -680.5000  -673.4000  -661.7000  -649.2000  -635.9000  -626.6000  -616.4000  -600.8000  -586.7000  -571.1000  -560.9000  -546.9000  -538.3000  -527.3000  -518.8000  -501.6000  -487.5000  -477.3000  -464.1000  -455.5000  -441.4000  -429.7000  -418.8000  -403.9000  -393.8000  -381.3000  -371.1000  -363.3000  -356.3000  -340.6000  -332.8000  -325.8000  -311.7000  -305.5000  -294.5000  -285.9000  -278.9000  -273.4000  -263.3000  -257.0000  -248.4000  -239.8000  -232.0000  -225.0000  -218.0000  -210.2000  -207.0000  -203.1000  -193.8000  -185.9000  -175.8000  -170.3000  -164.1000  -160.9000  -151.6000  -149.2000  -146.1000  -139.8000  -137.5000  -134.4000  -127.3000  -123.4000  -119.5000  -120.3000  -119.5000  -113.3000  -107.8000  -103.1000   -94.5000   -93.0000   -85.9000   -85.9000   -85.2000   -82.0000   -77.3000   -71.9000   -71.9000   -61.7000   -54.7000   -53.1000   -47.7000   -41.4000   -39.8000   -35.9000   -29.7000   -26.6000   -24.2000   -13.3000    -9.4000    -7.0000    -3.1000    -0.8000     3.9000     7.8000    10.2000    19.5000    21.1000    24.2000    23.4000    18.8000    13.3000     0.8000   -11.7000   -20.3000   -27.3000   -38.3000   -44.5000   -45.3000   -45.3000   -50.0000   -51.6000   -47.7000   -43.8000   -42.2000   -36.7000   -35.2000   -34.4000   -32.8000   -35.2000   -35.2000   -34.4000   -37.5000   -38.3000   -35.2000   -33.6000   -39.1000   -38.3000   -36.7000   -41.4000   -43.8000   -43.8000   -43.0000   -40.6000   -39.8000   -38.3000   -30.5000   -28.9000   -21.9000   -12.5000    -3.1000     5.5000    18.0000    28.1000    40.6000    46.1000    55.5000    64.8000    72.7000    77.3000    89.8000   100.8000   113.3000   121.1000   130.5000   143.0000   148.4000   150.8000   161.7000   171.9000   174.2000   177.3000   185.2000   193.8000   200.8000   204.7000   207.0000   219.5000   226.6000   233.6000   236.7000   246.1000   250.8000   254.7000   257.8000   261.7000   268.8000   275.0000   282.0000   282.8000   286.7000   295.3000   300.0000   300.8000   306.3000   308.6000   315.6000   318.8000   325.0000   327.3000   332.8000   339.1000   338.3000   337.5000   346.9000   347.7000   353.1000   359.4000   358.6000   359.4000   368.0000   370.3000   368.0000   373.4000   375.0000   378.9000   385.9000   392.2000   393.0000   395.3000   398.4000   396.9000   398.4000   401.6000   401.6000   409.4000   413.3000   417.2000   418.8000   421.1000   425.0000   429.7000   428.9000   430.5000   439.8000   442.2000   443.8000   444.5000   449.2000   448.4000   453.9000   453.1000   455.5000   460.9000   465.6000   462.5000   465.6000   466.4000   466.4000   468.0000   470.3000   471.1000   473.4000   478.9000   480.5000   480.5000   481.3000   482.0000   478.9000   480.5000   482.0000   483.6000   485.2000   490.6000   489.8000   489.1000   494.5000   491.4000   488.3000   491.4000   492.2000   491.4000   491.4000   493.8000   491.4000   486.7000   485.9000   485.2000   482.8000   482.0000   480.5000   477.3000   476.6000   479.7000   478.9000   473.4000   473.4000   469.5000   470.3000   469.5000   463.3000   461.7000   468.8000   468.0000   468.0000   463.3000   457.8000   454.7000   452.3000   452.3000   449.2000   448.4000   445.3000   443.0000   435.2000   429.7000   426.6000   423.4000   419.5000   421.1000   420.3000   418.8000   411.7000   408.6000   403.1000   396.1000   393.8000   393.8000   394.5000   391.4000   389.8000   387.5000   387.5000   384.4000   378.1000   375.8000   370.3000   368.0000   364.1000   364.1000   363.3000   357.8000   354.7000   351.6000   346.9000   345.3000   340.6000   338.3000   339.1000   333.6000   332.8000   323.4000   324.2000   323.4000   326.6000   325.8000   320.3000   317.2000   313.3000   317.2000   311.7000   309.4000   304.7000   303.1000   298.4000   294.5000   292.2000   285.2000   288.3000   286.7000   282.8000   279.7000   276.6000   276.6000   274.2000   274.2000   264.1000   260.2000   260.2000   258.6000   253.9000   245.3000   243.8000   240.6000   237.5000   232.8000   231.3000   223.4000   219.5000   218.0000   210.9000   210.9000   203.1000   203.1000   201.6000   198.4000   195.3000   195.3000   189.8000   182.0000   180.5000   176.6000   168.8000   161.7000   160.9000   164.8000   159.4000   153.1000   143.8000   141.4000   135.9000   133.6000   129.7000   126.6000   121.9000   118.8000   114.1000   106.3000   101.6000   100.0000    93.8000    92.2000    85.9000    76.6000    69.5000    67.2000    53.9000    48.4000    46.1000    39.8000    30.5000    28.1000    25.0000    14.8000     7.0000    -1.6000   -11.7000   -18.8000   -21.1000   -34.4000   -46.9000   -55.5000   -59.4000   -67.2000   -78.1000   -88.3000   -98.4000  -106.3000  -117.2000  -123.4000  -127.3000  -136.7000  -150.0000  -157.0000  -160.9000  -165.6000  -178.1000  -187.5000  -193.0000  -196.9000  -204.7000  -210.9000  -219.5000  -224.2000  -231.3000  -235.2000  -243.0000  -246.1000  -250.8000  -256.3000  -260.2000  -264.1000  -270.3000  -280.5000  -281.3000  -285.2000  -292.2000  -295.3000  -294.5000  -303.9000  -309.4000  -317.2000  -321.9000  -332.8000  -337.5000  -345.3000  -352.3000  -357.8000  -364.1000  -368.8000  -373.4000  -381.3000  -386.7000  -389.8000  -393.8000  -396.1000  -400.8000  -403.1000  -407.8000  -415.6000  -421.1000  -428.1000  -432.0000  -434.4000  -439.1000  -439.8000  -437.5000  -436.7000  -437.5000  -438.3000  -441.4000  -443.8000  -441.4000  -441.4000  -439.8000  -441.4000  -440.6000  -441.4000  -441.4000  -446.1000  -439.8000  -439.8000  -443.0000  -440.6000  -436.7000  -434.4000  -439.1000  -443.0000  -442.2000  -440.6000  -445.3000  -446.9000  -445.3000  -442.2000  -438.3000  -439.1000  -440.6000  -446.9000  -446.1000  -446.9000  -446.1000  -445.3000  -446.9000  -446.1000  -445.3000  -448.4000  -452.3000  -450.0000  -453.1000  -454.7000  -453.9000  -450.8000  -452.3000  -460.2000  -458.6000  -460.2000  -465.6000  -467.2000  -468.0000  -468.8000  -468.0000  -467.2000  -470.3000  -468.8000  -475.0000  -473.4000  -472.7000  -477.3000  -477.3000  -473.4000  -474.2000  -479.7000  -477.3000  -481.3000  -487.5000  -491.4000  -490.6000  -490.6000  -495.3000  -490.6000  -490.6000  -488.3000  -491.4000  -493.8000  -496.9000  -496.1000  -496.9000  -496.9000  -496.1000  -499.2000  -497.7000  -494.5000  -498.4000  -501.6000  -502.3000  -496.1000  -501.6000  -501.6000  -499.2000  -497.7000  -498.4000  -497.7000  -500.8000  -498.4000  -497.7000  -498.4000  -501.6000  -498.4000  -496.1000  -495.3000  -493.8000  -496.1000  -495.3000  -494.5000  -491.4000  -491.4000  -493.0000  -494.5000  -496.1000  -496.1000  -493.0000  -491.4000  -491.4000  -485.2000  -485.2000  -481.3000  -477.3000  -478.1000  -480.5000  -485.2000  -486.7000  -486.7000  -485.2000  -482.8000  -480.5000  -478.1000  -477.3000  -478.9000  -481.3000  -477.3000  -475.8000  -475.8000  -470.3000  -466.4000  -464.1000  -464.8000  -462.5000  -461.7000  -465.6000  -465.6000  -466.4000  -469.5000  -468.0000  -464.8000  -463.3000  -460.2000  -460.9000  -463.3000  -460.9000  -458.6000  -456.3000  -449.2000  -448.4000  -444.5000  -443.8000  -446.9000  -442.2000  -440.6000  -437.5000  -433.6000  -431.3000  -428.1000  -425.0000  -420.3000  -420.3000  -417.2000  -414.8000  -408.6000  -403.1000  -396.1000  -396.1000  -393.8000  -391.4000  -393.8000  -394.5000  -388.3000  -383.6000  -382.0000  -377.3000  -375.0000  -371.1000  -371.9000  -367.2000  -365.6000  -360.2000  -354.7000  -355.5000  -352.3000  -346.9000  -343.8000  -343.8000  -343.8000  -337.5000  -336.7000  -332.0000  -331.3000  -328.1000  -324.2000  -319.5000  -316.4000  -314.8000  -316.4000  -310.9000  -304.7000  -303.9000  -294.5000  -294.5000  -289.1000  -287.5000  -286.7000  -289.1000  -282.0000  -277.3000  -275.0000  -271.1000  -269.5000  -264.8000  -263.3000  -261.7000  -261.7000  -259.4000  -258.6000  -253.1000  -246.1000  -242.2000  -235.2000  -232.0000  -234.4000  -236.7000  -232.0000  -231.3000  -225.0000  -217.2000  -214.1000  -207.0000  -207.0000  -205.5000  -206.3000  -203.1000  -197.7000  -193.0000  -185.9000  -181.3000  -183.6000  -178.9000  -171.1000  -170.3000  -165.6000  -164.1000  -160.9000  -158.6000  -152.3000  -146.9000  -143.0000  -139.1000  -134.4000  -131.3000  -125.0000  -123.4000  -119.5000  -114.8000  -108.6000  -105.5000   -96.9000   -91.4000   -86.7000   -89.8000   -82.0000   -75.8000   -71.1000   -68.0000   -63.3000   -60.9000   -57.8000   -48.4000   -42.2000   -39.1000   -31.3000   -28.1000   -28.1000   -22.7000   -20.3000   -21.1000   -16.4000   -12.5000   -10.2000    -3.9000     2.3000     1.6000     2.3000     9.4000     8.6000    13.3000    19.5000    23.4000    30.5000    36.7000    39.1000    42.2000    46.1000    46.9000    50.8000    53.9000    57.8000    61.7000    71.9000    73.4000    77.3000    79.7000    82.8000    85.9000    87.5000    90.6000    95.3000   100.8000   103.9000   110.2000   114.8000   119.5000   117.2000   121.9000   123.4000   128.1000   131.3000   137.5000   141.4000   140.6000   139.8000   146.1000   146.9000   146.9000   148.4000   155.5000   164.1000   163.3000   161.7000   166.4000   170.3000   165.6000   168.0000   174.2000   179.7000   183.6000   185.9000   191.4000   195.3000   194.5000   200.0000   205.5000   207.8000   214.1000   218.0000   218.0000   220.3000   222.7000   225.0000   226.6000   229.7000   232.8000   235.9000   241.4000   244.5000   244.5000   253.9000   260.2000   260.9000   261.7000   264.1000   266.4000   266.4000   274.2000   279.7000   280.5000   283.6000   283.6000   285.9000   292.2000   293.8000   299.2000   307.0000   314.1000   318.0000   320.3000   322.7000   324.2000   328.1000   333.6000   333.6000   335.2000   343.8000   349.2000   353.1000   357.8000   358.6000   363.3000   364.8000   371.9000   377.3000   386.7000   388.3000   390.6000   393.8000   393.8000   396.9000   402.3000   405.5000   409.4000   413.3000   414.8000   421.1000   426.6000   428.9000   431.3000   437.5000   439.8000   442.2000   450.0000   453.9000   452.3000   454.7000   457.0000   457.8000   460.2000   461.7000   465.6000   468.8000   472.7000   476.6000   475.8000   479.7000   479.7000   477.3000   482.0000   486.7000   485.2000   484.4000   485.9000   485.2000   480.5000   481.3000   485.9000   485.9000   482.8000   482.0000   485.9000   485.2000   485.2000   484.4000   484.4000   486.7000   479.7000   476.6000   475.8000   476.6000   474.2000   471.9000   473.4000   466.4000   463.3000   461.7000   460.2000   455.5000   455.5000   456.3000   452.3000   449.2000   449.2000   439.8000   444.5000   437.5000   431.3000   432.0000   429.7000   428.9000   425.0000   423.4000   414.8000   411.7000   410.9000   407.8000   406.3000   403.9000   400.0000   399.2000   396.9000   393.0000   389.8000   387.5000   384.4000   381.3000   379.7000   377.3000   371.1000   363.3000   359.4000   355.5000   351.6000   343.8000   340.6000   344.5000   345.3000   345.3000   340.6000   336.7000   328.1000   325.0000   320.3000   314.1000   312.5000   310.9000   307.8000   305.5000   303.9000   296.9000   291.4000   284.4000   282.0000   281.3000   281.3000   272.7000   270.3000   266.4000   260.2000   257.0000   250.0000   246.9000   246.1000   244.5000   239.8000   236.7000   234.4000   230.5000   221.1000   218.8000   214.8000   209.4000   207.0000   202.3000   200.8000   194.5000   186.7000   178.9000   177.3000   175.8000   174.2000   172.7000   171.1000   160.9000   163.3000   159.4000   151.6000   150.8000   144.5000   139.8000   139.8000   140.6000   137.5000   128.9000   129.7000   122.7000   118.8000   118.0000   118.8000   111.7000   113.3000   108.6000   105.5000   103.9000   101.6000    92.2000    83.6000    81.3000    81.3000    79.7000    74.2000    76.6000    70.3000    64.8000    57.8000    53.9000    50.0000    46.9000    47.7000    42.2000    39.8000    32.8000    27.3000    19.5000    18.0000     9.4000     3.1000    -0.8000    -6.3000    -7.8000   -14.8000   -21.9000   -29.7000   -35.9000   -38.3000   -40.6000   -44.5000   -51.6000   -57.8000   -64.1000   -71.9000   -83.6000   -86.7000   -93.0000   -99.2000  -104.7000  -112.5000  -120.3000  -125.0000  -134.4000  -146.1000  -153.1000  -157.0000  -161.7000  -170.3000  -173.4000  -184.4000  -195.3000  -208.6000  -220.3000  -234.4000  -251.6000  -271.9000  -289.8000  -302.3000  -312.5000  -323.4000  -331.3000  -339.1000  -340.6000  -343.0000  -344.5000  -348.4000  -350.0000  -352.3000  -360.2000  -363.3000  -369.5000  -378.1000  -383.6000  -389.8000  -396.1000  -398.4000  -401.6000  -403.9000  -415.6000  -422.7000  -426.6000  -432.0000  -437.5000  -441.4000  -445.3000  -458.6000  -472.7000  -486.7000  -506.3000  -522.7000  -529.7000  -537.5000  -543.8000  -550.0000  -559.4000  -570.3000  -574.2000  -580.5000  -588.3000  -587.5000  -588.3000  -596.9000  -596.9000  -596.1000  -597.7000  -600.8000  -595.3000  -592.2000  -591.4000  -587.5000  -583.6000  -582.8000  -577.3000  -574.2000  -574.2000  -565.6000  -557.8000  -552.3000  -550.8000  -543.0000  -543.8000  -535.9000  -530.5000  -525.0000  -523.4000  -521.1000  -516.4000  -509.4000  -508.6000  -505.5000  -498.4000  -495.3000  -489.1000  -486.7000  -485.9000  -483.6000  -478.9000  -475.8000  -475.0000  -465.6000  -464.1000  -459.4000  -456.3000 